,open,high,low,close,volume,Ticker
2023-01-03 09:31:00,110.58,110.62,110.58,110.62,1160,ATR
2023-01-03 09:36:00,110.89,111.07,110.88,110.88,926,ATR
2023-01-03 09:41:00,110.9,110.9,110.9,110.9,146,ATR
2023-01-03 09:46:00,110.63,110.63,110.63,110.63,1489,ATR
2023-01-03 09:47:00,110.42,110.62,110.4,110.61,5067,ATR
2023-01-03 09:48:00,111.0,111.0,110.65,110.65,1062,ATR
2023-01-03 09:50:00,110.67,110.82,110.67,110.68,1449,ATR
2023-01-03 09:52:00,110.87,110.87,110.87,110.87,102,ATR
2023-01-03 09:53:00,110.73,110.73,110.53,110.53,1302,ATR
2023-01-03 09:54:00,110.5489,110.5489,110.5489,110.5489,283,ATR
2023-01-03 09:55:00,110.49,110.49,110.49,110.49,275,ATR
2023-01-03 10:01:00,110.42,110.63,110.42,110.63,2366,ATR
2023-01-03 10:02:00,110.5532,110.5532,110.5532,110.5532,1103,ATR
2023-01-03 10:03:00,110.64,110.64,110.64,110.64,316,ATR
2023-01-03 10:05:00,110.54,110.54,110.54,110.54,337,ATR
2023-01-03 10:07:00,110.53,110.58,110.49,110.49,743,ATR
2023-01-03 10:09:00,110.67,110.68,110.67,110.68,1205,ATR
2023-01-03 10:11:00,110.61,110.61,110.61,110.61,479,ATR
2023-01-03 10:13:00,110.39,110.48,110.39,110.48,668,ATR
2023-01-03 10:16:00,110.5554,110.56,110.37,110.38,2257,ATR
2023-01-03 10:17:00,110.32,110.32,110.13,110.13,835,ATR
2023-01-03 10:20:00,110.04,110.09,110.04,110.09,362,ATR
2023-01-03 10:21:00,109.71,109.71,109.71,109.71,225,ATR
2023-01-03 10:24:00,110.01,110.09,110.01,110.09,1344,ATR
2023-01-03 10:27:00,110.13,110.13,110.13,110.13,284,ATR
2023-01-03 10:29:00,110.08,110.08,110.08,110.08,122,ATR
2023-01-03 10:30:00,110.06,110.11,110.04,110.04,1246,ATR
2023-01-03 10:32:00,109.96,109.96,109.75,109.75,1115,ATR
2023-01-03 10:40:00,110.08,110.08,110.04,110.04,538,ATR
2023-01-03 10:41:00,110.0898,110.0898,110.0898,110.0898,122,ATR
2023-01-03 10:42:00,110.34,110.56,110.295,110.49,12950,ATR
2023-01-03 10:49:00,110.27,110.27,110.27,110.27,254,ATR
2023-01-03 10:53:00,110.36,110.37,110.355,110.355,593,ATR
2023-01-03 10:55:00,110.23,110.23,110.23,110.23,119,ATR
2023-01-03 10:59:00,110.42,110.42,110.42,110.42,112,ATR
2023-01-03 11:01:00,110.53,110.53,110.53,110.53,408,ATR
2023-01-03 11:03:00,110.54,110.54,110.54,110.54,333,ATR
2023-01-03 11:07:00,110.48,110.48,110.48,110.48,487,ATR
2023-01-03 11:08:00,110.5075,110.5075,110.5075,110.5075,100,ATR
2023-01-03 11:09:00,110.505,110.56,110.505,110.56,339,ATR
2023-01-03 11:10:00,110.59,110.59,110.45,110.45,839,ATR
2023-01-03 11:11:00,110.441,110.441,110.41,110.44,2173,ATR
2023-01-03 11:12:00,110.4,110.4,110.29,110.32,357,ATR
2023-01-03 11:14:00,110.22,110.22,110.16,110.16,426,ATR
2023-01-03 11:15:00,110.115,110.115,110.115,110.115,392,ATR
2023-01-03 11:17:00,109.66,109.66,109.66,109.66,433,ATR
2023-01-03 11:19:00,109.97,110.03,109.97,110.03,2098,ATR
2023-01-03 11:21:00,109.99,109.99,109.99,109.99,215,ATR
2023-01-03 11:22:00,110.09,110.09,110.09,110.09,206,ATR
2023-01-03 11:23:00,110.12,110.12,110.12,110.12,188,ATR
2023-01-03 11:26:00,110.17,110.46,110.17,110.46,1856,ATR
2023-01-03 11:27:00,110.4599,110.4599,110.4599,110.4599,142,ATR
2023-01-03 11:28:00,110.4599,110.4599,110.4599,110.4599,412,ATR
2023-01-03 11:29:00,110.4599,110.4599,110.4599,110.4599,401,ATR
2023-01-03 11:30:00,110.32,110.37,110.25,110.3599,1758,ATR
2023-01-03 11:31:00,110.36,110.36,110.35,110.35,624,ATR
2023-01-03 11:32:00,110.255,110.26,110.2,110.22,1118,ATR
2023-01-03 11:33:00,110.18,110.23,110.18,110.23,626,ATR
2023-01-03 11:43:00,109.96,109.96,109.96,109.96,270,ATR
2023-01-03 11:46:00,109.87,109.99,109.87,109.99,811,ATR
2023-01-03 11:48:00,109.995,109.995,109.995,109.995,895,ATR
2023-01-03 11:51:00,109.98,109.98,109.98,109.98,463,ATR
2023-01-03 11:53:00,110.05,110.05,110.05,110.05,701,ATR
2023-01-03 11:54:00,110.2363,110.2363,110.2363,110.2363,344,ATR
2023-01-03 11:57:00,110.1151,110.1151,110.1151,110.1151,579,ATR
2023-01-03 11:59:00,110.17,110.23,110.17,110.2,895,ATR
2023-01-03 12:02:00,110.16,110.17,110.15,110.15,938,ATR
2023-01-03 12:06:00,110.04,110.04,110.04,110.04,307,ATR
2023-01-03 12:08:00,110.12,110.18,110.12,110.18,812,ATR
2023-01-03 12:18:00,110.16,110.16,110.16,110.16,202,ATR
2023-01-03 12:22:00,110.18,110.28,110.17,110.28,925,ATR
2023-01-03 12:24:00,110.205,110.205,110.205,110.205,437,ATR
2023-01-03 12:27:00,110.135,110.135,110.135,110.135,471,ATR
2023-01-03 12:30:00,110.17,110.209,110.07,110.07,2203,ATR
2023-01-03 12:33:00,110.0801,110.22,109.9892,109.9892,7029,ATR
2023-01-03 12:36:00,110.24,110.24,110.22,110.24,808,ATR
2023-01-03 12:37:00,110.305,110.305,110.305,110.305,176,ATR
2023-01-03 12:40:00,110.22,110.222,110.22,110.222,316,ATR
2023-01-03 12:41:00,110.21,110.21,110.16,110.16,435,ATR
2023-01-03 12:42:00,110.02,110.03,110.02,110.03,356,ATR
2023-01-03 12:44:00,110.06,110.06,110.06,110.06,100,ATR
2023-01-03 12:46:00,109.92,109.92,109.92,109.92,317,ATR
2023-01-03 12:51:00,109.7699,109.83,109.76,109.79,1364,ATR
2023-01-03 12:55:00,109.9231,109.9231,109.9231,109.9231,725,ATR
2023-01-03 12:59:00,109.89,109.89,109.89,109.89,205,ATR
2023-01-03 13:03:00,109.82,109.82,109.82,109.82,233,ATR
2023-01-03 13:05:00,109.88,109.9,109.88,109.9,947,ATR
2023-01-03 13:10:00,109.82,109.82,109.82,109.82,140,ATR
2023-01-03 13:12:00,109.93,109.93,109.93,109.93,968,ATR
2023-01-03 13:15:00,109.92,109.92,109.92,109.92,101,ATR
2023-01-03 13:16:00,109.96,109.96,109.96,109.96,105,ATR
2023-01-03 13:19:00,110.02,110.07,110.02,110.07,412,ATR
2023-01-03 13:24:00,110.03,110.1,109.98,110.04,1693,ATR
2023-01-03 13:26:00,110.07,110.1,110.015,110.065,996,ATR
2023-01-03 13:27:00,110.07,110.2,110.0,110.2,761,ATR
2023-01-03 13:29:00,110.142,110.142,110.142,110.142,110,ATR
2023-01-03 13:40:00,110.13,110.13,110.12,110.12,698,ATR
2023-01-03 13:42:00,110.28,110.28,110.28,110.28,110,ATR
2023-01-03 13:46:00,110.22,110.22,110.22,110.22,266,ATR
2023-01-03 13:47:00,110.26,110.26,110.26,110.26,235,ATR
2023-01-03 13:48:00,110.25,110.25,110.16,110.16,964,ATR
2023-01-03 13:49:00,110.18,110.18,110.18,110.18,101,ATR
2023-01-03 13:53:00,110.22,110.23,110.22,110.23,1434,ATR
2023-01-03 13:56:00,110.26,110.26,110.26,110.26,312,ATR
2023-01-03 13:58:00,110.34,110.34,110.34,110.34,282,ATR
2023-01-03 14:01:00,110.275,110.33,110.275,110.33,273,ATR
2023-01-03 14:02:00,110.21,110.21,110.16,110.16,526,ATR
2023-01-03 14:06:00,110.15,110.15,110.14,110.14,555,ATR
2023-01-03 14:07:00,110.08,110.08,110.08,110.08,154,ATR
2023-01-03 14:09:00,110.1,110.23,110.1,110.23,1105,ATR
2023-01-03 14:11:00,110.18,110.18,110.18,110.18,116,ATR
2023-01-03 14:12:00,110.17,110.17,110.11,110.11,801,ATR
2023-01-03 14:13:00,110.06,110.06,110.06,110.06,582,ATR
2023-01-03 14:21:00,109.92,109.92,109.81,109.87,937,ATR
2023-01-03 14:22:00,109.755,109.755,109.755,109.755,142,ATR
2023-01-03 14:24:00,109.68,109.68,109.68,109.68,196,ATR
2023-01-03 14:25:00,109.67,109.679,109.67,109.679,547,ATR
2023-01-03 14:27:00,109.69,109.72,109.66,109.66,1200,ATR
2023-01-03 14:28:00,109.68,109.73,109.68,109.715,537,ATR
2023-01-03 14:29:00,109.7,109.7,109.7,109.7,183,ATR
2023-01-03 14:31:00,109.67,109.67,109.67,109.67,126,ATR
2023-01-03 14:32:00,109.59,109.59,109.59,109.59,745,ATR
2023-01-03 14:36:00,109.48,109.48,109.48,109.48,165,ATR
2023-01-03 14:40:00,109.45,109.45,109.45,109.45,207,ATR
2023-01-03 14:42:00,109.57,109.68,109.57,109.68,1763,ATR
2023-01-03 14:44:00,109.64,109.64,109.64,109.64,445,ATR
2023-01-03 14:45:00,109.86,109.86,109.86,109.86,126,ATR
2023-01-03 14:46:00,110.125,110.125,110.125,110.125,525,ATR
2023-01-03 14:47:00,110.3,110.3,110.3,110.3,188,ATR
2023-01-03 14:48:00,110.22,110.22,110.16,110.16,1161,ATR
2023-01-03 14:49:00,110.21,110.21,110.21,110.21,124,ATR
2023-01-03 14:51:00,110.11,110.11,110.11,110.11,124,ATR
2023-01-03 14:53:00,110.0,110.005,110.0,110.0,484,ATR
2023-01-03 14:54:00,110.03,110.03,110.03,110.03,101,ATR
2023-01-03 14:55:00,109.902,109.902,109.902,109.902,210,ATR
2023-01-03 14:56:00,109.885,109.9,109.885,109.9,507,ATR
2023-01-03 14:57:00,109.83,109.83,109.82,109.82,320,ATR
2023-01-03 14:58:00,109.76,109.82,109.76,109.82,348,ATR
2023-01-03 14:59:00,109.86,109.95,109.86,109.95,2627,ATR
2023-01-03 15:00:00,109.995,109.995,109.995,109.995,996,ATR
2023-01-03 15:01:00,109.99,110.15,109.99,110.15,548,ATR
2023-01-03 15:02:00,110.15,110.15,110.15,110.15,270,ATR
2023-01-03 15:11:00,110.01,110.01,110.01,110.01,366,ATR
2023-01-03 15:12:00,110.0,110.05,109.98,110.05,1461,ATR
2023-01-03 15:16:00,110.19,110.19,110.19,110.19,128,ATR
2023-01-03 15:20:00,110.16,110.18,110.14,110.14,799,ATR
2023-01-03 15:21:00,110.065,110.065,110.055,110.055,1464,ATR
2023-01-03 15:23:00,109.97,109.97,109.97,109.97,109,ATR
2023-01-03 15:24:00,109.97,109.97,109.955,109.955,544,ATR
2023-01-03 15:25:00,109.94,109.965,109.94,109.965,372,ATR
2023-01-03 15:26:00,110.02,110.1,110.02,110.1,1674,ATR
2023-01-03 15:27:00,110.13,110.13,110.13,110.13,172,ATR
2023-01-03 15:28:00,110.1,110.215,110.1,110.215,1668,ATR
2023-01-03 15:29:00,110.19,110.19,110.19,110.19,145,ATR
2023-01-03 15:30:00,110.136,110.136,110.136,110.136,145,ATR
2023-01-03 15:31:00,110.195,110.195,110.195,110.195,138,ATR
2023-01-03 15:32:00,110.195,110.195,110.195,110.195,109,ATR
2023-01-03 15:33:00,110.26,110.26,110.26,110.26,620,ATR
2023-01-03 15:34:00,110.35,110.35,110.35,110.35,568,ATR
2023-01-03 15:35:00,110.355,110.355,110.355,110.355,436,ATR
2023-01-03 15:36:00,110.355,110.458,110.355,110.411,715,ATR
2023-01-03 15:37:00,110.47,110.48,110.47,110.48,387,ATR
2023-01-03 15:38:00,110.495,110.495,110.37,110.37,1195,ATR
2023-01-03 15:40:00,110.3,110.3,110.3,110.3,322,ATR
2023-01-03 15:41:00,110.38,110.38,110.38,110.38,769,ATR
2023-01-03 15:42:00,110.32,110.32,110.3,110.3,943,ATR
2023-01-03 15:43:00,110.24,110.24,110.24,110.24,205,ATR
2023-01-03 15:44:00,110.32,110.34,110.242,110.34,783,ATR
2023-01-03 15:45:00,110.35,110.35,110.35,110.35,457,ATR
2023-01-03 15:46:00,110.27,110.27,110.27,110.27,123,ATR
2023-01-03 15:47:00,110.39,110.4771,110.39,110.4771,1900,ATR
2023-01-03 15:48:00,110.51,110.51,110.45,110.485,2233,ATR
2023-01-03 15:49:00,110.52,110.56,110.52,110.535,1254,ATR
2023-01-03 15:50:00,110.56,110.57,110.49,110.5,2533,ATR
2023-01-03 15:51:00,110.53,110.65,110.46,110.46,1730,ATR
2023-01-03 15:52:00,110.58,110.62,110.5,110.5,1400,ATR
2023-01-03 15:53:00,110.48,110.535,110.48,110.5,1249,ATR
2023-01-03 15:54:00,110.47,110.52,110.45,110.45,2234,ATR
2023-01-03 15:55:00,110.45,110.6,110.45,110.55,2226,ATR
2023-01-03 15:56:00,110.53,110.53,110.46,110.46,1592,ATR
2023-01-03 15:57:00,110.38,110.4,110.31,110.31,4706,ATR
2023-01-03 15:58:00,110.311,110.46,110.31,110.46,8218,ATR
2023-01-03 15:59:00,110.43,110.43,110.38,110.38,2161,ATR
2023-01-03 16:00:00,110.39,110.39,110.23,110.3,13503,ATR
2023-01-03 16:01:00,110.26,110.26,110.26,110.26,11447,ATR
2023-01-04 08:44:00,110.26,110.26,110.26,110.26,200,ATR
2023-01-04 09:31:00,111.26,111.26,111.26,111.26,1322,ATR
2023-01-04 09:33:00,111.72,111.72,111.68,111.68,303,ATR
2023-01-04 09:34:00,111.74,111.74,111.74,111.74,255,ATR
2023-01-04 09:35:00,111.74,111.74,111.61,111.61,221,ATR
2023-01-04 09:36:00,111.76,112.0,111.69,111.775,2191,ATR
2023-01-04 09:38:00,111.4601,111.4601,111.4601,111.4601,1518,ATR
2023-01-04 09:40:00,112.15,112.15,112.15,112.15,100,ATR
2023-01-04 09:42:00,111.835,111.835,111.835,111.835,162,ATR
2023-01-04 09:46:00,111.82,111.82,111.82,111.82,196,ATR
2023-01-04 09:48:00,111.87,111.87,111.87,111.87,497,ATR
2023-01-04 09:50:00,111.86,111.86,111.86,111.86,480,ATR
2023-01-04 09:51:00,111.91,111.91,111.91,111.91,197,ATR
2023-01-04 09:55:00,111.76,111.855,111.76,111.79,1314,ATR
2023-01-04 09:57:00,111.78,111.81,111.78,111.81,278,ATR
2023-01-04 09:58:00,111.53,111.95,111.53,111.7819,424,ATR
2023-01-04 10:01:00,111.63,111.63,111.63,111.63,331,ATR
2023-01-04 10:02:00,111.75,111.8,111.75,111.8,743,ATR
2023-01-04 10:03:00,111.85,111.85,111.6,111.6,325,ATR
2023-01-04 10:04:00,111.75,111.75,111.72,111.72,1096,ATR
2023-01-04 10:06:00,111.655,111.855,111.655,111.72,1016,ATR
2023-01-04 10:08:00,111.72,111.72,111.72,111.72,243,ATR
2023-01-04 10:13:00,111.17,111.17,111.17,111.17,100,ATR
2023-01-04 10:15:00,111.36,111.36,111.34,111.34,1095,ATR
2023-01-04 10:19:00,111.31,111.54,111.3,111.54,3811,ATR
2023-01-04 10:22:00,111.5319,111.5319,111.5319,111.5319,331,ATR
2023-01-04 10:23:00,111.44,111.44,111.44,111.44,410,ATR
2023-01-04 10:24:00,111.38,111.39,111.38,111.39,432,ATR
2023-01-04 10:25:00,111.42,111.52,111.38,111.52,800,ATR
2023-01-04 10:27:00,111.28,111.29,111.28,111.29,284,ATR
2023-01-04 10:28:00,111.41,111.48,111.41,111.48,598,ATR
2023-01-04 10:30:00,111.63,111.63,111.63,111.63,272,ATR
2023-01-04 10:32:00,111.3682,111.3682,111.3682,111.3682,225,ATR
2023-01-04 10:33:00,111.58,111.99,111.58,111.69,4485,ATR
2023-01-04 10:34:00,111.92,111.955,111.88,111.955,1004,ATR
2023-01-04 10:37:00,111.76,111.77,111.76,111.77,432,ATR
2023-01-04 10:45:00,111.85,111.87,111.85,111.85,773,ATR
2023-01-04 10:47:00,111.8181,111.8181,111.8181,111.8181,143,ATR
2023-01-04 10:48:00,111.93,111.93,111.93,111.93,100,ATR
2023-01-04 10:56:00,111.76,111.76,111.76,111.76,407,ATR
2023-01-04 11:01:00,111.83,111.83,111.68,111.8,1127,ATR
2023-01-04 11:03:00,111.585,111.585,111.585,111.585,109,ATR
2023-01-04 11:07:00,111.59,111.62,111.56,111.62,1551,ATR
2023-01-04 11:08:00,111.507,111.61,111.4293,111.61,1594,ATR
2023-01-04 11:09:00,111.52,111.655,111.52,111.655,330,ATR
2023-01-04 11:11:00,111.62,111.72,111.62,111.72,320,ATR
2023-01-04 11:21:00,111.61,111.61,111.61,111.61,269,ATR
2023-01-04 11:26:00,111.55,111.56,111.55,111.56,929,ATR
2023-01-04 11:28:00,111.545,111.75,111.545,111.75,1235,ATR
2023-01-04 11:31:00,111.67,111.79,111.67,111.79,1280,ATR
2023-01-04 11:32:00,111.77,111.79,111.77,111.79,479,ATR
2023-01-04 11:38:00,111.8387,111.8387,111.8,111.8,1350,ATR
2023-01-04 11:39:00,111.72,111.72,111.72,111.72,102,ATR
2023-01-04 11:40:00,111.69,111.795,111.68,111.79,1010,ATR
2023-01-04 11:41:00,111.92,111.92,111.87,111.87,383,ATR
2023-01-04 11:43:00,111.94,111.94,111.94,111.94,211,ATR
2023-01-04 11:46:00,112.0,112.0,111.97,111.97,247,ATR
2023-01-04 11:49:00,111.98,111.98,111.98,111.98,207,ATR
2023-01-04 11:51:00,112.075,112.075,112.075,112.075,533,ATR
2023-01-04 11:55:00,112.21,112.21,112.21,112.21,356,ATR
2023-01-04 12:11:00,111.98,112.06,111.98,112.06,536,ATR
2023-01-04 12:12:00,112.06,112.06,112.06,112.06,807,ATR
2023-01-04 12:13:00,112.02,112.02,112.02,112.02,103,ATR
2023-01-04 12:14:00,111.96,111.96,111.96,111.96,462,ATR
2023-01-04 12:21:00,111.775,111.775,111.775,111.775,117,ATR
2023-01-04 12:22:00,111.72,111.72,111.72,111.72,189,ATR
2023-01-04 12:25:00,111.69,111.69,111.69,111.69,102,ATR
2023-01-04 12:28:00,111.605,111.605,111.605,111.605,105,ATR
2023-01-04 12:30:00,111.6,111.6,111.6,111.6,106,ATR
2023-01-04 12:31:00,111.77,111.78,111.73,111.73,1751,ATR
2023-01-04 12:33:00,111.74,111.74,111.74,111.74,614,ATR
2023-01-04 12:36:00,111.775,111.775,111.775,111.775,423,ATR
2023-01-04 12:38:00,111.85,111.86,111.85,111.86,382,ATR
2023-01-04 12:45:00,111.88,111.88,111.88,111.88,125,ATR
2023-01-04 12:47:00,111.75,111.75,111.75,111.75,473,ATR
2023-01-04 12:48:00,111.64,111.64,111.64,111.64,200,ATR
2023-01-04 12:49:00,111.67,111.67,111.63,111.63,483,ATR
2023-01-04 12:52:00,111.59,111.59,111.58,111.58,1009,ATR
2023-01-04 12:54:00,111.38,111.38,111.38,111.38,124,ATR
2023-01-04 13:00:00,111.4,111.41,111.38,111.38,966,ATR
2023-01-04 13:01:00,111.38,111.38,111.35,111.35,405,ATR
2023-01-04 13:02:00,111.36,111.4,111.36,111.4,1246,ATR
2023-01-04 13:03:00,111.39,111.39,111.37,111.37,284,ATR
2023-01-04 13:05:00,111.47,111.47,111.47,111.47,126,ATR
2023-01-04 13:06:00,111.45,111.45,111.45,111.45,104,ATR
2023-01-04 13:08:00,111.47,111.58,111.47,111.58,957,ATR
2023-01-04 13:10:00,111.49,111.49,111.49,111.49,136,ATR
2023-01-04 13:11:00,111.49,111.49,111.49,111.49,100,ATR
2023-01-04 13:16:00,111.48,111.48,111.48,111.48,152,ATR
2023-01-04 13:19:00,111.58,111.59,111.55,111.55,1391,ATR
2023-01-04 13:20:00,111.59,111.59,111.59,111.59,100,ATR
2023-01-04 13:21:00,111.64,111.64,111.64,111.64,329,ATR
2023-01-04 13:32:00,111.53,111.64,111.53,111.575,838,ATR
2023-01-04 13:33:00,111.6203,111.67,111.6203,111.67,310,ATR
2023-01-04 13:37:00,111.725,111.725,111.725,111.725,224,ATR
2023-01-04 13:39:00,111.76,111.76,111.76,111.76,250,ATR
2023-01-04 13:40:00,111.76,111.76,111.76,111.76,652,ATR
2023-01-04 13:42:00,111.77,111.77,111.72,111.76,2878,ATR
2023-01-04 13:46:00,111.69,111.69,111.685,111.685,262,ATR
2023-01-04 13:48:00,111.64,111.645,111.58,111.58,697,ATR
2023-01-04 13:51:00,111.66,111.66,111.66,111.66,196,ATR
2023-01-04 13:53:00,111.46,111.5,111.46,111.5,206,ATR
2023-01-04 13:57:00,111.51,111.52,111.51,111.52,475,ATR
2023-01-04 13:59:00,111.49,111.49,111.49,111.49,168,ATR
2023-01-04 14:00:00,111.22,111.22,111.015,111.015,1126,ATR
2023-01-04 14:01:00,110.83,111.02,110.83,111.02,347,ATR
2023-01-04 14:02:00,111.025,111.1808,111.025,111.1808,393,ATR
2023-01-04 14:03:00,110.7853,110.94,110.775,110.94,2853,ATR
2023-01-04 14:04:00,110.62,110.62,110.535,110.535,876,ATR
2023-01-04 14:05:00,110.715,110.715,110.715,110.715,317,ATR
2023-01-04 14:06:00,110.825,110.95,110.74,110.91,1303,ATR
2023-01-04 14:07:00,110.775,110.775,110.775,110.775,116,ATR
2023-01-04 14:08:00,110.7533,110.7533,110.7533,110.7533,283,ATR
2023-01-04 14:09:00,110.71,110.71,110.71,110.71,256,ATR
2023-01-04 14:10:00,110.72,110.72,110.72,110.72,1132,ATR
2023-01-04 14:11:00,110.58,110.73,110.58,110.73,253,ATR
2023-01-04 14:12:00,110.75,110.77,110.65,110.65,2652,ATR
2023-01-04 14:13:00,110.59,110.59,110.54,110.54,635,ATR
2023-01-04 14:14:00,110.63,110.73,110.63,110.685,3447,ATR
2023-01-04 14:15:00,110.75,110.75,110.68,110.68,735,ATR
2023-01-04 14:16:00,110.79,110.85,110.735,110.8,4186,ATR
2023-01-04 14:17:00,110.79,110.95,110.79,110.95,1353,ATR
2023-01-04 14:18:00,110.92,111.03,110.92,110.98,2126,ATR
2023-01-04 14:22:00,111.04,111.04,110.96,110.96,1133,ATR
2023-01-04 14:23:00,110.88,110.88,110.88,110.88,382,ATR
2023-01-04 14:24:00,110.785,110.785,110.785,110.785,360,ATR
2023-01-04 14:26:00,110.7,110.7,110.69,110.69,859,ATR
2023-01-04 14:28:00,110.6,110.6,110.6,110.6,113,ATR
2023-01-04 14:29:00,110.58,110.58,110.58,110.58,131,ATR
2023-01-04 14:30:00,110.52,110.52,110.385,110.445,1668,ATR
2023-01-04 14:31:00,110.52,110.52,110.45,110.45,996,ATR
2023-01-04 14:32:00,110.5,110.5,110.5,110.5,100,ATR
2023-01-04 14:33:00,110.45,110.45,110.45,110.45,225,ATR
2023-01-04 14:34:00,110.55,110.62,110.55,110.555,2160,ATR
2023-01-04 14:36:00,110.75,110.75,110.74,110.74,666,ATR
2023-01-04 14:41:00,110.72,110.72,110.72,110.72,742,ATR
2023-01-04 14:42:00,110.81,110.89,110.81,110.89,780,ATR
2023-01-04 14:47:00,110.7,110.7,110.7,110.7,405,ATR
2023-01-04 14:50:00,110.68,110.71,110.68,110.71,824,ATR
2023-01-04 14:51:00,110.58,110.58,110.58,110.58,432,ATR
2023-01-04 14:54:00,110.64,110.64,110.53,110.53,1422,ATR
2023-01-04 14:56:00,110.53,110.6,110.53,110.565,975,ATR
2023-01-04 14:57:00,110.57,110.69,110.57,110.69,1207,ATR
2023-01-04 14:59:00,110.74,110.74,110.68,110.68,2062,ATR
2023-01-04 15:00:00,110.7,110.7,110.7,110.7,236,ATR
2023-01-04 15:01:00,110.69,110.69,110.69,110.69,145,ATR
2023-01-04 15:02:00,110.7,110.85,110.7,110.8125,1238,ATR
2023-01-04 15:03:00,110.77,110.77,110.77,110.77,271,ATR
2023-01-04 15:04:00,110.795,110.795,110.795,110.795,197,ATR
2023-01-04 15:05:00,110.795,110.795,110.795,110.795,178,ATR
2023-01-04 15:06:00,110.86,110.87,110.86,110.87,313,ATR
2023-01-04 15:07:00,110.75,110.75,110.74,110.75,1414,ATR
2023-01-04 15:08:00,110.75,110.77,110.75,110.77,362,ATR
2023-01-04 15:09:00,110.8,110.8,110.8,110.8,602,ATR
2023-01-04 15:10:00,110.8,110.81,110.8,110.81,323,ATR
2023-01-04 15:11:00,110.75,110.75,110.75,110.75,153,ATR
2023-01-04 15:13:00,110.78,110.78,110.78,110.78,921,ATR
2023-01-04 15:15:00,110.78,110.78,110.78,110.78,325,ATR
2023-01-04 15:16:00,110.83,110.83,110.83,110.83,221,ATR
2023-01-04 15:18:00,110.96,110.96,110.96,110.96,456,ATR
2023-01-04 15:20:00,110.99,110.99,110.94,110.94,1506,ATR
2023-01-04 15:21:00,111.04,111.04,111.04,111.04,176,ATR
2023-01-04 15:23:00,110.95,110.97,110.85,110.85,1532,ATR
2023-01-04 15:26:00,110.93,110.93,110.93,110.93,288,ATR
2023-01-04 15:27:00,110.88,110.88,110.88,110.88,581,ATR
2023-01-04 15:30:00,110.935,110.935,110.86,110.86,1233,ATR
2023-01-04 15:31:00,110.84,110.84,110.84,110.84,302,ATR
2023-01-04 15:32:00,110.83,110.83,110.83,110.83,283,ATR
2023-01-04 15:34:00,110.76,110.78,110.76,110.78,591,ATR
2023-01-04 15:35:00,110.72,110.745,110.71,110.71,1190,ATR
2023-01-04 15:36:00,110.59,110.59,110.49,110.49,480,ATR
2023-01-04 15:38:00,110.47,110.52,110.47,110.52,1023,ATR
2023-01-04 15:40:00,110.5,110.5,110.5,110.5,559,ATR
2023-01-04 15:43:00,110.419,110.419,110.31,110.325,995,ATR
2023-01-04 15:44:00,110.4,110.4,110.4,110.4,677,ATR
2023-01-04 15:45:00,110.44,110.45,110.39,110.39,1237,ATR
2023-01-04 15:46:00,110.4114,110.4114,110.4114,110.4114,588,ATR
2023-01-04 15:47:00,110.44,110.44,110.44,110.44,288,ATR
2023-01-04 15:48:00,110.415,110.415,110.415,110.415,239,ATR
2023-01-04 15:49:00,110.48,110.48,110.48,110.48,463,ATR
2023-01-04 15:50:00,110.62,110.62,110.62,110.62,445,ATR
2023-01-04 15:51:00,110.7,110.7,110.65,110.66,2159,ATR
2023-01-04 15:52:00,110.69,110.83,110.69,110.77,2979,ATR
2023-01-04 15:53:00,110.795,110.795,110.76,110.76,2104,ATR
2023-01-04 15:54:00,110.76,110.78,110.75,110.75,1751,ATR
2023-01-04 15:55:00,110.74,110.79,110.73,110.79,2735,ATR
2023-01-04 15:56:00,110.84,110.93,110.84,110.93,1437,ATR
2023-01-04 15:57:00,110.96,110.989,110.96,110.965,1292,ATR
2023-01-04 15:58:00,110.965,110.965,110.925,110.96,2426,ATR
2023-01-04 15:59:00,110.99,110.99,110.96,110.99,1352,ATR
2023-01-04 16:00:00,111.02,111.23,111.01,111.19,14177,ATR
2023-01-04 16:01:00,111.23,111.23,111.23,111.23,6946,ATR
2023-01-05 09:31:00,110.64,110.64,110.64,110.64,513,ATR
2023-01-05 09:35:00,110.38,110.38,109.47,109.48,1908,ATR
2023-01-05 09:38:00,109.65,109.65,109.22,109.22,804,ATR
2023-01-05 09:39:00,109.12,109.47,109.12,109.47,1993,ATR
2023-01-05 09:41:00,109.505,109.505,109.505,109.505,332,ATR
2023-01-05 09:42:00,109.505,109.505,109.505,109.505,101,ATR
2023-01-05 09:47:00,109.59,109.59,109.59,109.59,223,ATR
2023-01-05 09:51:00,109.67,109.72,109.67,109.72,501,ATR
2023-01-05 09:54:00,109.7659,109.7659,109.7659,109.7659,1062,ATR
2023-01-05 09:55:00,109.715,109.715,109.715,109.715,181,ATR
2023-01-05 09:57:00,109.54,109.54,109.54,109.54,105,ATR
2023-01-05 09:59:00,109.725,109.725,109.725,109.725,168,ATR
2023-01-05 10:01:00,109.56,109.78,109.56,109.78,1418,ATR
2023-01-05 10:02:00,109.715,110.22,109.715,110.22,2207,ATR
2023-01-05 10:08:00,110.33,110.33,110.3,110.3,517,ATR
2023-01-05 10:09:00,110.34,110.56,110.34,110.56,599,ATR
2023-01-05 10:12:00,110.46,110.48,110.18,110.3375,1620,ATR
2023-01-05 10:18:00,110.36,110.36,110.36,110.36,371,ATR
2023-01-05 10:22:00,110.27,110.27,110.27,110.27,100,ATR
2023-01-05 10:24:00,110.25,110.25,110.215,110.215,473,ATR
2023-01-05 10:35:00,110.07,110.07,110.07,110.07,102,ATR
2023-01-05 10:39:00,110.35,110.35,110.35,110.35,652,ATR
2023-01-05 10:40:00,110.36,110.36,110.36,110.36,576,ATR
2023-01-05 10:41:00,110.34,110.34,110.27,110.27,1457,ATR
2023-01-05 10:42:00,110.29,110.29,110.29,110.29,101,ATR
2023-01-05 10:44:00,110.45,110.45,110.45,110.45,611,ATR
2023-01-05 10:51:00,110.66,110.66,110.66,110.66,424,ATR
2023-01-05 10:52:00,110.655,110.655,110.56,110.655,995,ATR
2023-01-05 10:54:00,110.66,110.74,110.57,110.61,4811,ATR
2023-01-05 10:55:00,110.69,110.69,110.57,110.65,2278,ATR
2023-01-05 11:00:00,110.66,110.66,110.66,110.66,207,ATR
2023-01-05 11:02:00,110.8,110.8,110.65,110.66,791,ATR
2023-01-05 11:04:00,110.65,110.65,110.65,110.65,126,ATR
2023-01-05 11:10:00,110.8,110.87,110.8,110.87,807,ATR
2023-01-05 11:12:00,110.69,110.75,110.69,110.75,1345,ATR
2023-01-05 11:13:00,110.76,110.79,110.76,110.79,686,ATR
2023-01-05 11:14:00,110.79,110.79,110.79,110.79,792,ATR
2023-01-05 11:15:00,110.76,110.76,110.75,110.75,243,ATR
2023-01-05 11:16:00,110.8,110.8,110.73,110.8,2143,ATR
2023-01-05 11:18:00,110.815,110.815,110.815,110.815,159,ATR
2023-01-05 11:20:00,110.795,110.795,110.795,110.795,443,ATR
2023-01-05 11:21:00,110.795,110.795,110.795,110.795,153,ATR
2023-01-05 11:22:00,110.795,110.795,110.795,110.795,250,ATR
2023-01-05 11:23:00,110.75,110.81,110.66,110.7,5471,ATR
2023-01-05 11:24:00,110.769,110.77,110.72,110.74,1886,ATR
2023-01-05 11:25:00,110.72,110.91,110.72,110.87,2841,ATR
2023-01-05 11:26:00,110.885,110.885,110.885,110.885,108,ATR
2023-01-05 11:29:00,110.925,111.03,110.925,111.03,382,ATR
2023-01-05 11:32:00,111.06,111.06,111.06,111.06,522,ATR
2023-01-05 11:34:00,111.1,111.1,111.1,111.1,214,ATR
2023-01-05 11:35:00,111.14,111.2,111.14,111.2,1333,ATR
2023-01-05 11:36:00,111.22,111.22,111.22,111.22,278,ATR
2023-01-05 11:37:00,111.28,111.28,111.28,111.28,601,ATR
2023-01-05 11:38:00,111.31,111.31,111.31,111.31,1342,ATR
2023-01-05 11:39:00,111.3,111.31,111.3,111.31,1462,ATR
2023-01-05 11:40:00,111.32,111.43,111.29,111.305,4118,ATR
2023-01-05 11:41:00,111.31,111.35,111.305,111.35,2015,ATR
2023-01-05 11:50:00,111.415,111.58,111.415,111.57,2574,ATR
2023-01-05 11:51:00,111.61,111.61,111.53,111.53,506,ATR
2023-01-05 11:53:00,111.51,111.51,111.44,111.44,1862,ATR
2023-01-05 11:55:00,111.5,111.5,111.5,111.5,107,ATR
2023-01-05 11:56:00,111.525,111.56,111.5,111.56,4844,ATR
2023-01-05 11:57:00,111.54,111.56,111.51,111.54,548,ATR
2023-01-05 11:58:00,111.55,111.55,111.525,111.55,1243,ATR
2023-01-05 11:59:00,111.56,111.56,111.4,111.43,6330,ATR
2023-01-05 12:00:00,111.415,111.415,111.385,111.385,1006,ATR
2023-01-05 12:01:00,111.385,111.385,111.385,111.385,100,ATR
2023-01-05 12:02:00,111.41,111.44,111.41,111.42,1001,ATR
2023-01-05 12:03:00,111.4175,111.49,111.415,111.49,782,ATR
2023-01-05 12:04:00,111.5075,111.5075,111.5075,111.5075,507,ATR
2023-01-05 12:05:00,111.575,111.575,111.575,111.575,263,ATR
2023-01-05 12:07:00,111.61,111.61,111.61,111.61,353,ATR
2023-01-05 12:09:00,111.67,111.67,111.67,111.67,433,ATR
2023-01-05 12:11:00,111.68,111.68,111.67,111.67,431,ATR
2023-01-05 12:12:00,111.68,111.75,111.68,111.75,1820,ATR
2023-01-05 12:13:00,111.75,111.75,111.74,111.74,260,ATR
2023-01-05 12:15:00,111.77,111.77,111.75,111.75,274,ATR
2023-01-05 12:16:00,111.745,111.775,111.745,111.75,1526,ATR
2023-01-05 12:17:00,111.7982,111.8,111.76,111.8,884,ATR
2023-01-05 12:18:00,111.83,111.85,111.83,111.85,910,ATR
2023-01-05 12:19:00,111.89,111.91,111.83,111.87,4806,ATR
2023-01-05 12:20:00,111.84,111.86,111.79,111.815,1764,ATR
2023-01-05 12:21:00,111.83,111.83,111.82,111.83,500,ATR
2023-01-05 12:22:00,111.83,111.83,111.83,111.83,444,ATR
2023-01-05 12:23:00,111.83,111.83,111.83,111.83,160,ATR
2023-01-05 12:24:00,111.9,111.9,111.9,111.9,450,ATR
2023-01-05 12:25:00,111.88,111.91,111.88,111.8803,1046,ATR
2023-01-05 12:28:00,111.805,111.805,111.747,111.747,1488,ATR
2023-01-05 12:29:00,111.76,111.76,111.76,111.76,365,ATR
2023-01-05 12:30:00,111.8,111.81,111.7771,111.7771,959,ATR
2023-01-05 12:31:00,111.8,111.8,111.8,111.8,443,ATR
2023-01-05 12:32:00,111.82,111.87,111.82,111.87,1296,ATR
2023-01-05 12:33:00,111.88,111.94,111.88,111.94,1520,ATR
2023-01-05 12:34:00,111.905,111.905,111.905,111.905,216,ATR
2023-01-05 12:35:00,111.92,111.92,111.92,111.92,271,ATR
2023-01-05 12:38:00,111.94,111.965,111.93,111.965,491,ATR
2023-01-05 12:40:00,111.88,111.88,111.88,111.88,234,ATR
2023-01-05 12:42:00,111.855,111.855,111.855,111.855,237,ATR
2023-01-05 12:43:00,111.855,111.855,111.855,111.855,877,ATR
2023-01-05 12:44:00,111.89,111.89,111.89,111.89,573,ATR
2023-01-05 12:46:00,111.92,111.92,111.92,111.92,177,ATR
2023-01-05 12:47:00,111.89,111.89,111.89,111.89,810,ATR
2023-01-05 12:48:00,111.89,111.97,111.89,111.95,769,ATR
2023-01-05 12:49:00,111.975,111.975,111.975,111.975,331,ATR
2023-01-05 12:50:00,112.02,112.06,111.98,112.06,1562,ATR
2023-01-05 12:51:00,112.0,112.0,112.0,112.0,200,ATR
2023-01-05 12:52:00,111.95,111.95,111.885,111.89,1529,ATR
2023-01-05 12:54:00,111.89,112.05,111.87,112.035,4209,ATR
2023-01-05 12:55:00,111.97,111.97,111.96,111.96,200,ATR
2023-01-05 12:56:00,111.95,112.03,111.92,111.92,1250,ATR
2023-01-05 12:57:00,111.91,111.91,111.87,111.88,1470,ATR
2023-01-05 13:01:00,112.02,112.02,112.02,112.02,205,ATR
2023-01-05 13:03:00,112.04,112.04,112.04,112.04,465,ATR
2023-01-05 13:06:00,112.09,112.09,112.09,112.09,260,ATR
2023-01-05 13:07:00,112.11,112.14,112.11,112.14,723,ATR
2023-01-05 13:08:00,112.19,112.19,112.19,112.19,475,ATR
2023-01-05 13:10:00,112.17,112.18,112.17,112.17,819,ATR
2023-01-05 13:12:00,112.18,112.18,112.18,112.18,375,ATR
2023-01-05 13:13:00,112.22,112.22,112.2,112.2,553,ATR
2023-01-05 13:14:00,112.165,112.165,112.165,112.165,100,ATR
2023-01-05 13:15:00,112.165,112.165,112.165,112.165,320,ATR
2023-01-05 13:16:00,112.165,112.2,112.165,112.2,632,ATR
2023-01-05 13:18:00,112.165,112.165,112.165,112.165,245,ATR
2023-01-05 13:19:00,112.19,112.19,112.19,112.19,172,ATR
2023-01-05 13:21:00,112.24,112.38,112.24,112.38,2640,ATR
2023-01-05 13:22:00,112.35,112.35,112.33,112.33,1042,ATR
2023-01-05 13:23:00,112.58,112.6,112.58,112.6,631,ATR
2023-01-05 13:24:00,112.595,112.71,112.595,112.71,1150,ATR
2023-01-05 13:25:00,112.69,112.73,112.61,112.73,2828,ATR
2023-01-05 13:26:00,112.81,112.81,112.7,112.7,922,ATR
2023-01-05 13:27:00,112.8,112.8,112.76,112.76,1633,ATR
2023-01-05 13:28:00,112.81,112.915,112.81,112.915,2342,ATR
2023-01-05 13:29:00,113.0,113.03,112.84,112.84,6247,ATR
2023-01-05 13:31:00,112.635,112.635,112.635,112.635,267,ATR
2023-01-05 13:34:00,112.62,112.62,112.62,112.62,117,ATR
2023-01-05 13:35:00,112.49,112.49,112.49,112.49,561,ATR
2023-01-05 13:36:00,112.46,112.46,112.46,112.46,461,ATR
2023-01-05 13:41:00,112.39,112.52,112.39,112.51,2383,ATR
2023-01-05 13:43:00,112.6,112.67,112.57,112.65,3294,ATR
2023-01-05 13:44:00,112.65,112.66,112.63,112.66,1234,ATR
2023-01-05 13:45:00,112.645,112.645,112.645,112.645,103,ATR
2023-01-05 13:46:00,112.69,112.69,112.69,112.69,167,ATR
2023-01-05 13:47:00,112.69,112.7,112.525,112.525,4303,ATR
2023-01-05 13:48:00,112.63,112.63,112.61,112.62,719,ATR
2023-01-05 13:50:00,112.64,112.65,112.6,112.65,1738,ATR
2023-01-05 13:51:00,112.625,112.65,112.6,112.64,1338,ATR
2023-01-05 13:52:00,112.71,112.71,112.7,112.7,1049,ATR
2023-01-05 13:53:00,112.65,112.65,112.585,112.585,517,ATR
2023-01-05 13:54:00,112.575,112.67,112.575,112.67,536,ATR
2023-01-05 13:55:00,112.67,112.67,112.6185,112.6185,1264,ATR
2023-01-05 13:57:00,112.715,112.715,112.715,112.715,106,ATR
2023-01-05 13:59:00,112.54,112.54,112.54,112.54,423,ATR
2023-01-05 14:01:00,112.34,112.34,112.34,112.34,254,ATR
2023-01-05 14:05:00,112.3729,112.3729,112.335,112.335,1017,ATR
2023-01-05 14:06:00,112.35,112.37,112.35,112.37,770,ATR
2023-01-05 14:07:00,112.505,112.505,112.505,112.505,140,ATR
2023-01-05 14:15:00,112.33,112.33,112.26,112.26,985,ATR
2023-01-05 14:16:00,112.1587,112.1587,112.1587,112.1587,383,ATR
2023-01-05 14:17:00,112.345,112.345,112.25,112.25,281,ATR
2023-01-05 14:19:00,112.37,112.37,112.37,112.37,873,ATR
2023-01-05 14:20:00,112.43,112.46,112.43,112.46,458,ATR
2023-01-05 14:29:00,112.46,112.46,112.27,112.27,1974,ATR
2023-01-05 14:33:00,112.375,112.3975,112.375,112.375,444,ATR
2023-01-05 14:34:00,112.305,112.33,112.28,112.28,629,ATR
2023-01-05 14:36:00,112.425,112.425,112.425,112.425,226,ATR
2023-01-05 14:37:00,112.34,112.5,112.34,112.45,1371,ATR
2023-01-05 14:38:00,112.52,112.52,112.52,112.52,326,ATR
2023-01-05 14:42:00,112.58,112.58,112.54,112.54,522,ATR
2023-01-05 14:43:00,112.5,112.51,112.5,112.51,651,ATR
2023-01-05 14:45:00,112.54,112.54,112.54,112.54,704,ATR
2023-01-05 14:46:00,112.655,112.655,112.655,112.655,349,ATR
2023-01-05 14:49:00,112.605,112.605,112.605,112.605,345,ATR
2023-01-05 14:50:00,112.66,112.665,112.66,112.665,736,ATR
2023-01-05 14:51:00,112.62,112.62,112.62,112.62,663,ATR
2023-01-05 14:54:00,112.57,112.6699,112.57,112.6699,260,ATR
2023-01-05 14:56:00,112.67,112.67,112.67,112.67,857,ATR
2023-01-05 14:57:00,112.67,112.67,112.62,112.62,1074,ATR
2023-01-05 15:00:00,112.54,112.54,112.54,112.54,333,ATR
2023-01-05 15:01:00,112.42,112.42,112.4,112.4,237,ATR
2023-01-05 15:03:00,112.41,112.41,112.22,112.22,661,ATR
2023-01-05 15:05:00,112.25,112.25,112.25,112.25,112,ATR
2023-01-05 15:06:00,112.365,112.365,112.365,112.365,215,ATR
2023-01-05 15:07:00,112.25,112.25,112.25,112.25,572,ATR
2023-01-05 15:09:00,112.19,112.19,112.19,112.19,115,ATR
2023-01-05 15:10:00,112.14,112.14,112.14,112.14,337,ATR
2023-01-05 15:12:00,112.03,112.05,112.03,112.05,446,ATR
2023-01-05 15:14:00,111.84,111.86,111.84,111.86,336,ATR
2023-01-05 15:15:00,112.02,112.03,112.02,112.03,1050,ATR
2023-01-05 15:16:00,112.06,112.06,112.06,112.06,440,ATR
2023-01-05 15:18:00,112.04,112.04,112.04,112.04,166,ATR
2023-01-05 15:19:00,112.005,112.005,112.005,112.005,378,ATR
2023-01-05 15:22:00,112.05,112.05,112.05,112.05,305,ATR
2023-01-05 15:23:00,112.025,112.025,111.92,111.92,751,ATR
2023-01-05 15:24:00,112.0,112.015,112.0,112.015,377,ATR
2023-01-05 15:25:00,112.01,112.01,112.01,112.01,111,ATR
2023-01-05 15:26:00,112.115,112.115,112.115,112.115,500,ATR
2023-01-05 15:27:00,111.965,111.965,111.965,111.965,214,ATR
2023-01-05 15:28:00,112.01,112.01,112.01,112.01,495,ATR
2023-01-05 15:31:00,112.0,112.0,112.0,112.0,1178,ATR
2023-01-05 15:32:00,111.95,111.95,111.95,111.95,355,ATR
2023-01-05 15:33:00,111.91,112.04,111.91,112.01,1593,ATR
2023-01-05 15:34:00,112.07,112.16,112.07,112.15,1366,ATR
2023-01-05 15:35:00,112.26,112.315,112.26,112.315,331,ATR
2023-01-05 15:36:00,112.385,112.39,112.385,112.39,323,ATR
2023-01-05 15:38:00,112.375,112.375,112.375,112.375,319,ATR
2023-01-05 15:39:00,112.34,112.34,112.33,112.33,1629,ATR
2023-01-05 15:41:00,112.335,112.39,112.3,112.3,2462,ATR
2023-01-05 15:42:00,112.24,112.24,112.24,112.24,776,ATR
2023-01-05 15:43:00,112.12,112.142,112.08,112.08,455,ATR
2023-01-05 15:44:00,112.1,112.1,112.1,112.1,248,ATR
2023-01-05 15:45:00,112.12,112.17,112.12,112.17,445,ATR
2023-01-05 15:46:00,112.24,112.24,112.24,112.24,1215,ATR
2023-01-05 15:47:00,112.21,112.211,112.2,112.2,1203,ATR
2023-01-05 15:48:00,112.15,112.15,112.0211,112.0211,1081,ATR
2023-01-05 15:49:00,112.08,112.08,112.03,112.03,1001,ATR
2023-01-05 15:50:00,112.09,112.09,112.04,112.04,866,ATR
2023-01-05 15:51:00,112.04,112.055,112.02,112.03,2873,ATR
2023-01-05 15:52:00,111.99,111.99,111.99,111.99,1618,ATR
2023-01-05 15:53:00,112.03,112.04,112.03,112.04,1282,ATR
2023-01-05 15:54:00,112.09,112.11,112.08,112.11,1482,ATR
2023-01-05 15:55:00,112.09,112.09,111.96,112.03,4425,ATR
2023-01-05 15:56:00,112.07,112.12,112.06,112.06,2886,ATR
2023-01-05 15:57:00,112.06,112.06,112.05,112.05,710,ATR
2023-01-05 15:58:00,112.15,112.21,112.13,112.16,5659,ATR
2023-01-05 15:59:00,112.145,112.17,112.145,112.15,1847,ATR
2023-01-05 16:00:00,112.11,112.17,112.04,112.11,7259,ATR
2023-01-05 16:01:00,112.12,112.12,112.12,112.12,4917,ATR
2023-01-05 16:02:00,112.12,112.12,112.12,112.12,247,ATR
2023-01-06 09:31:00,113.38,113.38,113.0,113.0,2244,ATR
2023-01-06 09:32:00,113.11,113.11,112.98,113.0,3279,ATR
2023-01-06 09:33:00,113.28,113.28,113.28,113.28,169,ATR
2023-01-06 09:36:00,113.58,113.58,113.58,113.58,147,ATR
2023-01-06 09:40:00,114.17,114.17,114.17,114.17,382,ATR
2023-01-06 09:43:00,113.35,113.39,113.18,113.39,993,ATR
2023-01-06 09:45:00,113.445,113.445,112.92,112.92,1937,ATR
2023-01-06 09:47:00,112.74,112.74,112.74,112.74,490,ATR
2023-01-06 09:51:00,112.92,112.95,112.92,112.95,648,ATR
2023-01-06 09:53:00,113.15,113.235,113.15,113.235,460,ATR
2023-01-06 09:57:00,113.365,113.365,113.365,113.365,100,ATR
2023-01-06 10:00:00,113.41,113.41,113.375,113.375,246,ATR
2023-01-06 10:04:00,113.87,113.87,113.87,113.87,593,ATR
2023-01-06 10:07:00,113.8,113.8,113.8,113.8,337,ATR
2023-01-06 10:08:00,113.85,113.87,113.84,113.84,952,ATR
2023-01-06 10:09:00,113.83,113.83,113.83,113.83,159,ATR
2023-01-06 10:13:00,113.68,113.68,113.68,113.68,570,ATR
2023-01-06 10:27:00,113.5,113.51,113.33,113.33,1644,ATR
2023-01-06 10:31:00,113.52,113.52,113.52,113.52,699,ATR
2023-01-06 10:35:00,113.475,113.475,113.475,113.475,141,ATR
2023-01-06 10:37:00,113.56,113.65,113.56,113.65,795,ATR
2023-01-06 10:38:00,113.6499,113.6499,113.6499,113.6499,244,ATR
2023-01-06 10:41:00,113.72,113.72,113.72,113.72,176,ATR
2023-01-06 10:42:00,113.82,113.83,113.82,113.83,434,ATR
2023-01-06 10:43:00,113.782,113.782,113.77,113.77,511,ATR
2023-01-06 10:46:00,113.69,113.69,113.69,113.69,140,ATR
2023-01-06 10:47:00,113.67,113.67,113.67,113.67,265,ATR
2023-01-06 10:49:00,113.7,113.7,113.7,113.7,106,ATR
2023-01-06 10:50:00,113.72,113.74,113.6,113.6,5531,ATR
2023-01-06 10:51:00,113.715,113.715,113.715,113.715,122,ATR
2023-01-06 10:55:00,113.77,113.77,113.77,113.77,428,ATR
2023-01-06 10:57:00,113.705,113.705,113.705,113.705,251,ATR
2023-01-06 10:58:00,113.705,113.78,113.705,113.78,702,ATR
2023-01-06 10:59:00,113.84,113.93,113.84,113.93,1211,ATR
2023-01-06 11:01:00,113.92,113.92,113.835,113.835,202,ATR
2023-01-06 11:03:00,113.83,113.83,113.83,113.83,233,ATR
2023-01-06 11:04:00,113.91,113.91,113.91,113.91,165,ATR
2023-01-06 11:07:00,113.92,113.99,113.89,113.98,907,ATR
2023-01-06 11:11:00,113.96,114.08,113.96,114.08,671,ATR
2023-01-06 11:12:00,113.94,113.96,113.94,113.96,266,ATR
2023-01-06 11:13:00,114.03,114.03,114.03,114.03,205,ATR
2023-01-06 11:14:00,113.975,113.975,113.975,113.975,235,ATR
2023-01-06 11:17:00,113.865,113.96,113.855,113.96,303,ATR
2023-01-06 11:18:00,113.87,113.895,113.87,113.895,1434,ATR
2023-01-06 11:19:00,113.895,113.895,113.69,113.77,1064,ATR
2023-01-06 11:24:00,113.78,113.7895,113.78,113.78,404,ATR
2023-01-06 11:25:00,113.83,113.97,113.83,113.935,3730,ATR
2023-01-06 11:27:00,113.93,113.93,113.93,113.93,221,ATR
2023-01-06 11:30:00,113.87,113.87,113.87,113.87,162,ATR
2023-01-06 11:34:00,114.0537,114.0537,114.0537,114.0537,289,ATR
2023-01-06 11:36:00,114.02,114.02,114.02,114.02,317,ATR
2023-01-06 11:37:00,114.01,114.01,113.96,113.96,384,ATR
2023-01-06 11:41:00,113.93,113.97,113.93,113.97,458,ATR
2023-01-06 11:42:00,113.91,113.91,113.91,113.91,145,ATR
2023-01-06 11:43:00,113.905,113.97,113.905,113.97,951,ATR
2023-01-06 11:48:00,113.92,113.92,113.92,113.92,196,ATR
2023-01-06 11:49:00,113.925,114.06,113.925,114.06,1770,ATR
2023-01-06 11:52:00,114.28,114.3,114.28,114.3,382,ATR
2023-01-06 11:54:00,114.29,114.4,114.29,114.4,923,ATR
2023-01-06 11:57:00,114.31,114.31,114.31,114.31,100,ATR
2023-01-06 12:00:00,114.15,114.15,114.15,114.15,373,ATR
2023-01-06 12:01:00,114.145,114.145,114.145,114.145,113,ATR
2023-01-06 12:04:00,114.13,114.13,114.13,114.13,108,ATR
2023-01-06 12:06:00,114.13,114.13,114.13,114.13,108,ATR
2023-01-06 12:07:00,114.06,114.06,114.06,114.06,246,ATR
2023-01-06 12:14:00,114.0,114.02,114.0,114.0,860,ATR
2023-01-06 12:16:00,114.09,114.09,114.065,114.065,365,ATR
2023-01-06 12:17:00,113.985,113.985,113.985,113.985,130,ATR
2023-01-06 12:21:00,114.0,114.0,113.975,113.975,1397,ATR
2023-01-06 12:23:00,113.99,113.99,113.99,113.99,122,ATR
2023-01-06 12:24:00,113.94,113.94,113.7,113.72,9580,ATR
2023-01-06 12:25:00,113.72,113.72,113.72,113.72,178,ATR
2023-01-06 12:27:00,113.55,113.66,113.54,113.66,1576,ATR
2023-01-06 12:29:00,113.6,113.6,113.6,113.6,143,ATR
2023-01-06 12:32:00,113.6,113.6,113.6,113.6,104,ATR
2023-01-06 12:33:00,113.6,113.6,113.6,113.6,146,ATR
2023-01-06 12:39:00,113.6,113.6,113.6,113.6,154,ATR
2023-01-06 12:43:00,113.5,113.5,113.5,113.5,129,ATR
2023-01-06 12:46:00,113.545,113.545,113.51,113.51,213,ATR
2023-01-06 12:52:00,113.5,113.5,113.5,113.5,220,ATR
2023-01-06 12:53:00,113.5,113.5,113.5,113.5,115,ATR
2023-01-06 12:54:00,113.39,113.39,113.39,113.39,106,ATR
2023-01-06 12:57:00,113.44,113.455,113.44,113.455,910,ATR
2023-01-06 12:58:00,113.34,113.34,113.34,113.34,279,ATR
2023-01-06 12:59:00,113.39,113.4,113.39,113.4,1300,ATR
2023-01-06 13:01:00,113.46,113.51,113.46,113.51,359,ATR
2023-01-06 13:04:00,113.52,113.52,113.52,113.52,100,ATR
2023-01-06 13:06:00,113.61,113.63,113.61,113.63,359,ATR
2023-01-06 13:10:00,113.65,113.71,113.65,113.66,740,ATR
2023-01-06 13:11:00,113.6706,113.6706,113.6706,113.6706,400,ATR
2023-01-06 13:12:00,113.61,113.61,113.61,113.61,137,ATR
2023-01-06 13:13:00,113.71,113.76,113.71,113.755,1431,ATR
2023-01-06 13:17:00,113.89,113.89,113.785,113.79,600,ATR
2023-01-06 13:21:00,113.71,113.71,113.71,113.71,166,ATR
2023-01-06 13:22:00,113.605,113.605,113.605,113.605,113,ATR
2023-01-06 13:26:00,113.65,113.65,113.65,113.65,252,ATR
2023-01-06 13:27:00,113.66,113.68,113.66,113.68,649,ATR
2023-01-06 13:28:00,113.69,113.69,113.66,113.66,683,ATR
2023-01-06 13:35:00,113.65,113.65,113.65,113.65,377,ATR
2023-01-06 13:36:00,113.58,113.59,113.52,113.56,1761,ATR
2023-01-06 13:38:00,113.56,113.56,113.56,113.56,237,ATR
2023-01-06 13:43:00,113.47,113.47,113.435,113.435,503,ATR
2023-01-06 13:44:00,113.465,113.465,113.465,113.465,320,ATR
2023-01-06 13:45:00,113.46,113.46,113.4375,113.4375,268,ATR
2023-01-06 13:46:00,113.4699,113.5,113.4699,113.5,1086,ATR
2023-01-06 13:47:00,113.49,113.49,113.49,113.49,185,ATR
2023-01-06 13:51:00,113.5,113.5,113.5,113.5,210,ATR
2023-01-06 13:53:00,113.57,113.57,113.57,113.57,584,ATR
2023-01-06 13:56:00,113.665,113.69,113.66,113.66,566,ATR
2023-01-06 13:58:00,113.7,113.745,113.69,113.745,990,ATR
2023-01-06 13:59:00,113.71,113.71,113.71,113.71,282,ATR
2023-01-06 14:00:00,113.66,113.66,113.66,113.66,267,ATR
2023-01-06 14:02:00,113.71,113.71,113.675,113.675,1842,ATR
2023-01-06 14:05:00,113.63,113.63,113.63,113.63,230,ATR
2023-01-06 14:07:00,113.7,113.7,113.7,113.7,104,ATR
2023-01-06 14:08:00,113.645,113.645,113.645,113.645,172,ATR
2023-01-06 14:11:00,113.685,113.685,113.685,113.685,199,ATR
2023-01-06 14:13:00,113.705,113.705,113.705,113.705,227,ATR
2023-01-06 14:15:00,113.69,113.7,113.69,113.7,817,ATR
2023-01-06 14:16:00,113.75,113.75,113.75,113.75,684,ATR
2023-01-06 14:18:00,113.73,113.73,113.72,113.72,784,ATR
2023-01-06 14:20:00,113.68,113.69,113.68,113.69,820,ATR
2023-01-06 14:21:00,113.73,113.74,113.73,113.74,368,ATR
2023-01-06 14:22:00,113.75,113.75,113.75,113.75,119,ATR
2023-01-06 14:25:00,113.73,113.73,113.72,113.72,722,ATR
2023-01-06 14:27:00,113.71,113.71,113.71,113.71,332,ATR
2023-01-06 14:28:00,113.73,113.75,113.73,113.75,1071,ATR
2023-01-06 14:29:00,113.77,113.78,113.77,113.78,624,ATR
2023-01-06 14:30:00,113.85,113.85,113.78,113.78,1335,ATR
2023-01-06 14:34:00,113.8,113.84,113.78,113.78,686,ATR
2023-01-06 14:35:00,113.8,113.81,113.8,113.81,242,ATR
2023-01-06 14:41:00,113.71,113.71,113.7,113.7,444,ATR
2023-01-06 14:43:00,113.77,113.77,113.77,113.77,364,ATR
2023-01-06 14:44:00,113.79,113.79,113.78,113.78,322,ATR
2023-01-06 14:53:00,113.83,113.84,113.83,113.84,843,ATR
2023-01-06 14:54:00,113.86,113.93,113.86,113.93,826,ATR
2023-01-06 14:55:00,113.92,113.92,113.89,113.89,261,ATR
2023-01-06 14:56:00,113.94,113.94,113.92,113.92,889,ATR
2023-01-06 15:00:00,113.91,113.91,113.91,113.91,252,ATR
2023-01-06 15:02:00,113.97,113.97,113.97,113.97,593,ATR
2023-01-06 15:03:00,114.0,114.0,114.0,114.0,307,ATR
2023-01-06 15:04:00,114.02,114.02,114.02,114.02,756,ATR
2023-01-06 15:05:00,114.0406,114.0406,114.0406,114.0406,440,ATR
2023-01-06 15:08:00,114.03,114.05,113.97,113.97,1494,ATR
2023-01-06 15:11:00,114.07,114.07,114.07,114.07,329,ATR
2023-01-06 15:14:00,114.06,114.06,113.99,113.99,1555,ATR
2023-01-06 15:16:00,114.04,114.04,114.04,114.04,120,ATR
2023-01-06 15:18:00,114.045,114.045,113.99,113.99,979,ATR
2023-01-06 15:19:00,114.0,114.0,114.0,114.0,107,ATR
2023-01-06 15:20:00,114.0,114.0,113.98,113.98,695,ATR
2023-01-06 15:21:00,113.93,113.96,113.93,113.96,833,ATR
2023-01-06 15:22:00,113.945,113.945,113.945,113.945,276,ATR
2023-01-06 15:23:00,113.93,113.93,113.93,113.93,436,ATR
2023-01-06 15:26:00,113.99,114.01,113.99,114.01,1132,ATR
2023-01-06 15:27:00,113.97,113.97,113.96,113.96,247,ATR
2023-01-06 15:28:00,113.965,113.965,113.965,113.965,171,ATR
2023-01-06 15:29:00,113.95,113.95,113.95,113.95,338,ATR
2023-01-06 15:30:00,113.9,113.9,113.88,113.88,1135,ATR
2023-01-06 15:31:00,113.869,113.95,113.86,113.95,2550,ATR
2023-01-06 15:32:00,114.0,114.01,114.0,114.01,407,ATR
2023-01-06 15:33:00,114.11,114.11,114.11,114.11,104,ATR
2023-01-06 15:34:00,114.09,114.09,114.03,114.03,217,ATR
2023-01-06 15:35:00,114.09,114.09,114.09,114.09,209,ATR
2023-01-06 15:38:00,114.085,114.085,113.92,113.92,1997,ATR
2023-01-06 15:39:00,113.92,113.92,113.92,113.92,393,ATR
2023-01-06 15:40:00,113.88,113.96,113.87,113.96,1794,ATR
2023-01-06 15:41:00,113.91,113.91,113.9,113.9,521,ATR
2023-01-06 15:42:00,113.9,114.06,113.9,114.06,1309,ATR
2023-01-06 15:43:00,114.06,114.06,113.99,113.99,1154,ATR
2023-01-06 15:44:00,113.985,113.985,113.985,113.985,181,ATR
2023-01-06 15:45:00,114.03,114.086,114.03,114.086,1533,ATR
2023-01-06 15:46:00,114.08,114.145,114.08,114.145,1104,ATR
2023-01-06 15:47:00,114.19,114.22,114.17,114.22,971,ATR
2023-01-06 15:48:00,114.21,114.21,114.21,114.21,683,ATR
2023-01-06 15:49:00,114.13,114.13,114.13,114.13,683,ATR
2023-01-06 15:50:00,114.14,114.14,114.095,114.095,1692,ATR
2023-01-06 15:51:00,113.96,113.96,113.935,113.935,784,ATR
2023-01-06 15:52:00,113.955,113.96,113.94,113.96,1974,ATR
2023-01-06 15:53:00,113.965,113.965,113.965,113.965,322,ATR
2023-01-06 15:54:00,113.965,114.129,113.94,114.1,5473,ATR
2023-01-06 15:55:00,114.07,114.07,113.94,113.94,2231,ATR
2023-01-06 15:56:00,113.93,114.02,113.93,113.98,3754,ATR
2023-01-06 15:57:00,113.99,113.99,113.97,113.99,1406,ATR
2023-01-06 15:58:00,113.99,114.0,113.95,113.95,2603,ATR
2023-01-06 15:59:00,113.93,113.96,113.93,113.96,1256,ATR
2023-01-06 16:00:00,113.96,114.11,113.96,114.11,5724,ATR
2023-01-06 16:01:00,114.06,114.06,114.06,114.06,3109,ATR
2023-01-06 16:02:00,114.06,114.06,114.06,114.06,260,ATR
2023-01-09 09:31:00,114.63,114.63,114.63,114.63,2316,ATR
2023-01-09 09:34:00,114.4,114.4,114.4,114.4,104,ATR
2023-01-09 09:36:00,114.33,114.33,114.33,114.33,207,ATR
2023-01-09 09:38:00,114.305,114.305,114.305,114.305,107,ATR
2023-01-09 09:40:00,114.31,114.31,114.1825,114.1825,277,ATR
2023-01-09 09:42:00,114.375,114.375,114.05,114.05,258,ATR
2023-01-09 09:45:00,113.94,114.135,113.94,114.135,4361,ATR
2023-01-09 09:46:00,113.94,113.94,113.87,113.87,517,ATR
2023-01-09 09:54:00,113.86,113.86,113.7,113.7,445,ATR
2023-01-09 09:56:00,113.88,113.9,113.88,113.88,1272,ATR
2023-01-09 09:57:00,113.8144,113.91,113.7,113.8325,7846,ATR
2023-01-09 09:58:00,113.75,113.835,113.47,113.5044,3112,ATR
2023-01-09 10:00:00,113.58,113.985,113.58,113.985,2771,ATR
2023-01-09 10:01:00,114.12,114.12,114.12,114.12,499,ATR
2023-01-09 10:05:00,114.47,114.47,114.47,114.47,345,ATR
2023-01-09 10:06:00,114.4,114.4,114.39,114.39,459,ATR
2023-01-09 10:08:00,114.37,114.4,114.37,114.4,369,ATR
2023-01-09 10:10:00,114.19,114.45,114.18,114.26,3370,ATR
2023-01-09 10:11:00,114.26,114.26,114.26,114.26,260,ATR
2023-01-09 10:12:00,114.23,114.23,114.21,114.22,1229,ATR
2023-01-09 10:14:00,114.14,114.16,114.14,114.16,751,ATR
2023-01-09 10:15:00,114.36,114.36,114.16,114.3,1860,ATR
2023-01-09 10:20:00,114.51,114.66,114.42,114.66,1151,ATR
2023-01-09 10:26:00,114.905,114.905,114.905,114.905,314,ATR
2023-01-09 10:30:00,114.838,114.838,114.838,114.838,671,ATR
2023-01-09 10:31:00,114.77,114.77,114.76,114.76,267,ATR
2023-01-09 10:36:00,114.91,114.91,114.82,114.82,425,ATR
2023-01-09 10:38:00,114.94,114.94,114.94,114.94,201,ATR
2023-01-09 10:40:00,115.015,115.015,115.015,115.015,248,ATR
2023-01-09 10:42:00,115.06,115.15,115.06,115.15,1328,ATR
2023-01-09 10:43:00,115.14,115.14,115.14,115.14,319,ATR
2023-01-09 10:44:00,115.38,115.38,115.38,115.38,1034,ATR
2023-01-09 10:45:00,115.38,115.38,115.37,115.37,689,ATR
2023-01-09 10:49:00,115.44,115.55,115.44,115.53,1192,ATR
2023-01-09 10:50:00,115.54,115.55,115.54,115.55,487,ATR
2023-01-09 10:53:00,115.59,115.59,115.59,115.59,347,ATR
2023-01-09 10:56:00,115.62,115.67,115.62,115.67,697,ATR
2023-01-09 10:57:00,115.66,115.66,115.66,115.66,663,ATR
2023-01-09 10:58:00,115.635,115.635,115.635,115.635,273,ATR
2023-01-09 11:04:00,115.63,115.6691,115.63,115.6691,360,ATR
2023-01-09 11:06:00,115.6215,115.6215,115.6215,115.6215,317,ATR
2023-01-09 11:18:00,115.68,115.68,115.68,115.68,494,ATR
2023-01-09 11:24:00,115.51,115.51,115.51,115.51,225,ATR
2023-01-09 11:26:00,115.37,115.37,115.37,115.37,461,ATR
2023-01-09 11:27:00,115.4,115.44,115.39,115.39,328,ATR
2023-01-09 11:35:00,115.18,115.18,115.18,115.18,310,ATR
2023-01-09 11:38:00,115.22,115.28,115.22,115.28,1045,ATR
2023-01-09 11:40:00,115.16,115.16,115.16,115.16,373,ATR
2023-01-09 11:50:00,115.45,115.45,115.45,115.45,446,ATR
2023-01-09 11:56:00,115.43,115.43,115.43,115.43,214,ATR
2023-01-09 12:03:00,115.31,115.31,115.31,115.31,377,ATR
2023-01-09 12:04:00,115.2196,115.2196,115.2196,115.2196,263,ATR
2023-01-09 12:05:00,115.41,115.41,115.41,115.41,132,ATR
2023-01-09 12:08:00,115.445,115.445,115.445,115.445,230,ATR
2023-01-09 12:09:00,115.33,115.33,115.33,115.33,185,ATR
2023-01-09 12:10:00,115.2821,115.2821,115.2821,115.2821,739,ATR
2023-01-09 12:22:00,115.2042,115.2042,115.2042,115.2042,358,ATR
2023-01-09 12:23:00,115.23,115.23,115.23,115.23,918,ATR
2023-01-09 12:25:00,115.12,115.12,115.12,115.12,121,ATR
2023-01-09 12:28:00,115.05,115.25,115.05,115.25,2275,ATR
2023-01-09 12:33:00,115.24,115.24,115.24,115.24,123,ATR
2023-01-09 12:35:00,115.32,115.32,115.32,115.32,174,ATR
2023-01-09 12:49:00,115.05,115.11,115.05,115.11,676,ATR
2023-01-09 12:58:00,114.89,114.89,114.85,114.85,1014,ATR
2023-01-09 13:01:00,114.9197,114.9197,114.9197,114.9197,275,ATR
2023-01-09 13:05:00,114.83,114.83,114.83,114.83,150,ATR
2023-01-09 13:06:00,114.72,114.72,114.72,114.72,430,ATR
2023-01-09 13:17:00,114.71,114.715,114.675,114.715,1392,ATR
2023-01-09 13:18:00,114.59,114.59,114.59,114.59,106,ATR
2023-01-09 13:21:00,114.67,114.67,114.67,114.67,469,ATR
2023-01-09 13:23:00,114.68,114.74,114.68,114.69,2434,ATR
2023-01-09 13:24:00,114.64,114.64,114.64,114.64,139,ATR
2023-01-09 13:25:00,114.68,114.68,114.68,114.68,222,ATR
2023-01-09 13:31:00,114.61,114.61,114.59,114.59,873,ATR
2023-01-09 13:32:00,114.58,114.61,114.42,114.42,1020,ATR
2023-01-09 13:34:00,114.55,114.55,114.55,114.55,385,ATR
2023-01-09 13:36:00,114.42,114.42,114.42,114.42,136,ATR
2023-01-09 13:39:00,114.37,114.37,114.37,114.37,226,ATR
2023-01-09 13:41:00,114.26,114.26,114.26,114.26,372,ATR
2023-01-09 13:44:00,114.17,114.17,114.16,114.16,301,ATR
2023-01-09 13:45:00,114.14,114.21,114.14,114.16,1539,ATR
2023-01-09 13:46:00,114.18,114.18,114.18,114.18,103,ATR
2023-01-09 13:48:00,114.15,114.15,114.15,114.15,218,ATR
2023-01-09 13:50:00,114.13,114.155,114.13,114.155,343,ATR
2023-01-09 13:53:00,114.16,114.18,114.16,114.165,543,ATR
2023-01-09 13:58:00,114.01,114.05,114.01,114.03,1595,ATR
2023-01-09 14:02:00,114.1,114.15,114.1,114.15,953,ATR
2023-01-09 14:03:00,114.22,114.235,114.22,114.235,287,ATR
2023-01-09 14:04:00,114.25,114.25,114.23,114.25,577,ATR
2023-01-09 14:06:00,114.1,114.1,114.1,114.1,491,ATR
2023-01-09 14:15:00,114.1,114.1,114.1,114.1,127,ATR
2023-01-09 14:21:00,114.02,114.02,114.02,114.02,261,ATR
2023-01-09 14:22:00,114.065,114.065,114.065,114.065,157,ATR
2023-01-09 14:23:00,114.02,114.02,114.02,114.02,628,ATR
2023-01-09 14:24:00,114.0,114.0,114.0,114.0,104,ATR
2023-01-09 14:25:00,114.04,114.055,114.0,114.0,1079,ATR
2023-01-09 14:28:00,114.02,114.02,114.02,114.02,194,ATR
2023-01-09 14:29:00,114.0,114.0,114.0,114.0,224,ATR
2023-01-09 14:30:00,113.97,113.97,113.95,113.95,782,ATR
2023-01-09 14:36:00,113.835,113.835,113.835,113.835,139,ATR
2023-01-09 14:38:00,113.81,113.81,113.81,113.81,217,ATR
2023-01-09 14:39:00,113.75,113.75,113.75,113.75,222,ATR
2023-01-09 14:40:00,113.79,113.79,113.79,113.79,355,ATR
2023-01-09 14:42:00,113.84,113.84,113.84,113.84,541,ATR
2023-01-09 14:43:00,113.83,113.83,113.83,113.83,251,ATR
2023-01-09 14:50:00,113.86,113.86,113.85,113.85,438,ATR
2023-01-09 14:55:00,113.86,113.88,113.82,113.86,1551,ATR
2023-01-09 14:59:00,113.74,113.7895,113.74,113.7889,846,ATR
2023-01-09 15:00:00,113.615,113.615,113.615,113.615,119,ATR
2023-01-09 15:02:00,113.67,113.67,113.67,113.67,238,ATR
2023-01-09 15:04:00,113.658,113.658,113.658,113.658,472,ATR
2023-01-09 15:06:00,113.73,113.73,113.73,113.73,542,ATR
2023-01-09 15:07:00,113.82,113.82,113.82,113.82,465,ATR
2023-01-09 15:11:00,113.935,113.935,113.935,113.935,187,ATR
2023-01-09 15:12:00,113.85,113.85,113.82,113.82,524,ATR
2023-01-09 15:18:00,113.6,113.6,113.54,113.54,242,ATR
2023-01-09 15:19:00,113.62,113.62,113.62,113.62,164,ATR
2023-01-09 15:20:00,113.67,113.69,113.67,113.69,563,ATR
2023-01-09 15:21:00,113.705,113.705,113.705,113.705,541,ATR
2023-01-09 15:22:00,113.74,113.77,113.74,113.77,477,ATR
2023-01-09 15:24:00,113.83,113.895,113.819,113.819,756,ATR
2023-01-09 15:25:00,113.81,113.81,113.81,113.81,282,ATR
2023-01-09 15:27:00,113.71,113.71,113.641,113.641,534,ATR
2023-01-09 15:30:00,113.725,113.725,113.65,113.65,903,ATR
2023-01-09 15:31:00,113.65,113.66,113.65,113.66,631,ATR
2023-01-09 15:32:00,113.58,113.58,113.58,113.58,282,ATR
2023-01-09 15:33:00,113.61,113.65,113.61,113.6389,628,ATR
2023-01-09 15:34:00,113.71,113.71,113.71,113.71,500,ATR
2023-01-09 15:35:00,113.81,113.81,113.81,113.81,1173,ATR
2023-01-09 15:36:00,113.87,113.87,113.87,113.87,145,ATR
2023-01-09 15:38:00,113.87,113.87,113.81,113.81,853,ATR
2023-01-09 15:41:00,113.75,113.77,113.75,113.77,840,ATR
2023-01-09 15:42:00,113.75,113.78,113.74,113.78,1544,ATR
2023-01-09 15:44:00,113.75,113.75,113.75,113.75,231,ATR
2023-01-09 15:45:00,113.8,113.8,113.74,113.74,343,ATR
2023-01-09 15:47:00,113.775,113.775,113.6263,113.6462,2550,ATR
2023-01-09 15:48:00,113.49,113.49,113.49,113.49,657,ATR
2023-01-09 15:49:00,113.43,113.43,113.41,113.41,550,ATR
2023-01-09 15:50:00,113.435,113.44,113.435,113.44,372,ATR
2023-01-09 15:51:00,113.51,113.59,113.51,113.59,1477,ATR
2023-01-09 15:52:00,113.56,113.56,113.56,113.56,530,ATR
2023-01-09 15:53:00,113.49,113.54,113.49,113.54,681,ATR
2023-01-09 15:54:00,113.48,113.505,113.36,113.36,2038,ATR
2023-01-09 15:55:00,113.42,113.48,113.37,113.46,1328,ATR
2023-01-09 15:56:00,113.485,113.485,113.29,113.42,3396,ATR
2023-01-09 15:57:00,113.41,113.495,113.41,113.495,1728,ATR
2023-01-09 15:58:00,113.49,113.5,113.425,113.465,3277,ATR
2023-01-09 15:59:00,113.465,113.56,113.43,113.49,4005,ATR
2023-01-09 16:00:00,113.51,113.57,113.28,113.28,6922,ATR
2023-01-09 16:01:00,113.33,113.33,113.33,113.33,3153,ATR
2023-01-10 09:31:00,113.19,113.19,113.19,113.19,925,ATR
2023-01-10 09:32:00,113.1985,113.1985,113.0,113.0,926,ATR
2023-01-10 09:47:00,113.36,113.36,113.36,113.36,322,ATR
2023-01-10 09:48:00,113.27,113.74,113.26,113.74,5740,ATR
2023-01-10 09:49:00,113.65,113.65,113.65,113.65,101,ATR
2023-01-10 09:53:00,113.47,113.47,113.47,113.47,171,ATR
2023-01-10 10:01:00,113.86,114.01,113.86,114.01,4189,ATR
2023-01-10 10:02:00,114.1,114.1,114.1,114.1,200,ATR
2023-01-10 10:03:00,114.34,114.34,113.86,113.86,1945,ATR
2023-01-10 10:05:00,113.84,113.84,113.84,113.84,125,ATR
2023-01-10 10:13:00,113.86,113.88,113.81,113.86,1741,ATR
2023-01-10 10:18:00,113.89,113.89,113.89,113.89,301,ATR
2023-01-10 10:19:00,113.78,113.78,113.76,113.76,791,ATR
2023-01-10 10:20:00,113.765,113.765,113.765,113.765,211,ATR
2023-01-10 10:26:00,113.715,113.73,113.715,113.73,335,ATR
2023-01-10 10:27:00,113.87,113.87,113.87,113.87,167,ATR
2023-01-10 10:31:00,113.5,113.6,113.5,113.6,481,ATR
2023-01-10 10:40:00,113.2711,113.295,113.2,113.29,701,ATR
2023-01-10 10:42:00,113.15,113.15,113.12,113.12,651,ATR
2023-01-10 10:45:00,112.96,112.96,112.96,112.96,138,ATR
2023-01-10 10:50:00,112.995,112.995,112.995,112.995,223,ATR
2023-01-10 10:51:00,113.1,113.1,113.02,113.055,3091,ATR
2023-01-10 10:52:00,113.06,113.06,113.06,113.06,113,ATR
2023-01-10 10:53:00,113.055,113.22,113.055,113.22,1813,ATR
2023-01-10 10:54:00,113.35,113.35,113.35,113.35,285,ATR
2023-01-10 10:57:00,113.35,113.36,113.35,113.355,954,ATR
2023-01-10 10:59:00,113.35,113.35,113.35,113.35,343,ATR
2023-01-10 11:01:00,113.31,113.31,113.31,113.31,119,ATR
2023-01-10 11:05:00,113.35,113.35,113.35,113.35,101,ATR
2023-01-10 11:09:00,113.42,113.42,113.42,113.42,114,ATR
2023-01-10 11:11:00,113.39,113.395,113.33,113.36,699,ATR
2023-01-10 11:13:00,113.41,113.41,113.41,113.41,107,ATR
2023-01-10 11:14:00,113.42,113.42,113.405,113.405,317,ATR
2023-01-10 11:21:00,113.325,113.325,113.325,113.325,153,ATR
2023-01-10 11:23:00,113.375,113.39,113.25,113.25,946,ATR
2023-01-10 11:26:00,113.24,113.24,113.24,113.24,118,ATR
2023-01-10 11:27:00,113.22,113.22,113.19,113.19,361,ATR
2023-01-10 11:30:00,113.155,113.155,113.155,113.155,116,ATR
2023-01-10 11:34:00,113.19,113.19,113.19,113.19,127,ATR
2023-01-10 11:36:00,113.23,113.32,113.2,113.32,837,ATR
2023-01-10 11:39:00,113.335,113.335,113.335,113.335,101,ATR
2023-01-10 11:40:00,113.32,113.32,113.32,113.32,102,ATR
2023-01-10 11:41:00,113.355,113.355,113.355,113.355,102,ATR
2023-01-10 11:46:00,113.24,113.24,113.18,113.18,586,ATR
2023-01-10 11:49:00,113.19,113.19,113.19,113.19,586,ATR
2023-01-10 11:59:00,113.35,113.35,113.35,113.35,400,ATR
2023-01-10 12:01:00,113.11,113.11,113.11,113.11,530,ATR
2023-01-10 12:02:00,113.19,113.24,113.19,113.24,309,ATR
2023-01-10 12:04:00,113.34,113.34,113.34,113.34,150,ATR
2023-01-10 12:07:00,113.35,113.35,113.35,113.35,135,ATR
2023-01-10 12:10:00,113.34,113.34,113.34,113.34,206,ATR
2023-01-10 12:11:00,113.35,113.35,113.35,113.35,511,ATR
2023-01-10 12:13:00,113.39,113.39,113.35,113.36,659,ATR
2023-01-10 12:14:00,113.26,113.26,113.26,113.26,478,ATR
2023-01-10 12:15:00,113.285,113.285,113.285,113.285,230,ATR
2023-01-10 12:16:00,113.21,113.21,113.21,113.21,217,ATR
2023-01-10 12:19:00,113.22,113.22,113.22,113.22,275,ATR
2023-01-10 12:20:00,113.22,113.22,113.215,113.215,200,ATR
2023-01-10 12:26:00,113.41,113.41,113.41,113.41,110,ATR
2023-01-10 12:27:00,113.4,113.4,113.27,113.27,282,ATR
2023-01-10 12:28:00,113.38,113.48,113.38,113.48,353,ATR
2023-01-10 12:29:00,113.465,113.515,113.38,113.38,1297,ATR
2023-01-10 12:31:00,113.35,113.35,113.35,113.35,100,ATR
2023-01-10 12:32:00,113.36,113.36,113.36,113.36,100,ATR
2023-01-10 12:40:00,113.395,113.43,113.39,113.43,983,ATR
2023-01-10 12:46:00,113.34,113.48,113.34,113.48,1158,ATR
2023-01-10 12:47:00,113.475,113.48,113.475,113.48,425,ATR
2023-01-10 12:55:00,113.41,113.41,113.41,113.41,105,ATR
2023-01-10 12:59:00,113.46,113.46,113.46,113.46,104,ATR
2023-01-10 13:02:00,113.46,113.46,113.46,113.46,205,ATR
2023-01-10 13:03:00,113.46,113.46,113.46,113.46,102,ATR
2023-01-10 13:05:00,113.46,113.46,113.46,113.46,359,ATR
2023-01-10 13:12:00,113.68,113.68,113.68,113.68,234,ATR
2023-01-10 13:13:00,113.61,113.61,113.59,113.59,756,ATR
2023-01-10 13:20:00,113.45,113.45,113.45,113.45,345,ATR
2023-01-10 13:21:00,113.45,113.45,113.45,113.45,228,ATR
2023-01-10 13:23:00,113.45,113.45,113.45,113.45,100,ATR
2023-01-10 13:25:00,113.52,113.52,113.52,113.52,109,ATR
2023-01-10 13:34:00,113.645,113.65,113.645,113.645,454,ATR
2023-01-10 13:35:00,113.55,113.55,113.43,113.46,2014,ATR
2023-01-10 13:36:00,113.5,113.5,113.5,113.5,118,ATR
2023-01-10 13:38:00,113.4,113.4,113.4,113.4,102,ATR
2023-01-10 13:40:00,113.45,113.46,113.16,113.24,15942,ATR
2023-01-10 13:41:00,113.42,113.5,113.42,113.5,738,ATR
2023-01-10 13:43:00,113.505,113.505,113.505,113.505,109,ATR
2023-01-10 13:44:00,113.41,113.41,113.2901,113.2901,849,ATR
2023-01-10 13:48:00,113.44,113.44,113.44,113.44,471,ATR
2023-01-10 13:50:00,113.47,113.48,113.47,113.48,310,ATR
2023-01-10 13:52:00,113.41,113.41,113.41,113.41,158,ATR
2023-01-10 13:53:00,113.41,113.41,113.41,113.41,295,ATR
2023-01-10 13:54:00,113.43,113.43,113.43,113.43,119,ATR
2023-01-10 13:58:00,113.41,113.41,113.41,113.41,110,ATR
2023-01-10 14:00:00,113.47,113.5,113.47,113.5,367,ATR
2023-01-10 14:01:00,113.545,113.545,113.545,113.545,285,ATR
2023-01-10 14:05:00,113.64,113.64,113.59,113.59,415,ATR
2023-01-10 14:06:00,113.59,113.6,113.555,113.56,985,ATR
2023-01-10 14:07:00,113.57,113.595,113.57,113.595,570,ATR
2023-01-10 14:08:00,113.55,113.55,113.55,113.55,130,ATR
2023-01-10 14:09:00,113.595,113.595,113.595,113.595,185,ATR
2023-01-10 14:10:00,113.56,113.56,113.56,113.56,148,ATR
2023-01-10 14:11:00,113.595,113.6175,113.56,113.6175,459,ATR
2023-01-10 14:12:00,113.55,113.55,113.55,113.55,333,ATR
2023-01-10 14:13:00,113.595,113.71,113.595,113.71,935,ATR
2023-01-10 14:14:00,113.69,113.69,113.49,113.58,2742,ATR
2023-01-10 14:15:00,113.59,113.59,113.54,113.54,643,ATR
2023-01-10 14:16:00,113.56,113.63,113.56,113.57,586,ATR
2023-01-10 14:17:00,113.575,113.62,113.53,113.53,1824,ATR
2023-01-10 14:18:00,113.515,113.515,113.48,113.48,471,ATR
2023-01-10 14:19:00,113.44,113.465,113.44,113.465,257,ATR
2023-01-10 14:20:00,113.47,113.47,113.465,113.465,262,ATR
2023-01-10 14:21:00,113.43,113.43,113.43,113.43,245,ATR
2023-01-10 14:24:00,113.43,113.43,113.32,113.32,1208,ATR
2023-01-10 14:25:00,113.375,113.375,113.375,113.375,391,ATR
2023-01-10 14:26:00,113.4,113.4,113.335,113.36,618,ATR
2023-01-10 14:27:00,113.39,113.39,113.35,113.35,1283,ATR
2023-01-10 14:28:00,113.31,113.31,113.31,113.31,310,ATR
2023-01-10 14:29:00,113.36,113.36,113.36,113.36,238,ATR
2023-01-10 14:30:00,113.4,113.45,113.37,113.37,2846,ATR
2023-01-10 14:31:00,113.415,113.415,113.415,113.415,141,ATR
2023-01-10 14:32:00,113.415,113.45,113.415,113.45,1514,ATR
2023-01-10 14:33:00,113.46,113.4862,113.46,113.46,895,ATR
2023-01-10 14:36:00,113.48,113.48,113.44,113.44,1030,ATR
2023-01-10 14:37:00,113.45,113.48,113.45,113.45,513,ATR
2023-01-10 14:38:00,113.49,113.49,113.49,113.49,265,ATR
2023-01-10 14:39:00,113.45,113.45,113.41,113.41,949,ATR
2023-01-10 14:40:00,113.42,113.42,113.42,113.42,331,ATR
2023-01-10 14:42:00,113.385,113.385,113.385,113.385,217,ATR
2023-01-10 14:43:00,113.39,113.39,113.39,113.39,123,ATR
2023-01-10 14:44:00,113.405,113.405,113.405,113.405,255,ATR
2023-01-10 14:45:00,113.39,113.39,113.39,113.39,100,ATR
2023-01-10 14:46:00,113.33,113.365,113.33,113.365,625,ATR
2023-01-10 14:49:00,113.435,113.435,113.435,113.435,100,ATR
2023-01-10 14:50:00,113.43,113.43,113.42,113.42,462,ATR
2023-01-10 14:51:00,113.36,113.36,113.36,113.36,163,ATR
2023-01-10 14:52:00,113.385,113.385,113.385,113.385,100,ATR
2023-01-10 14:54:00,113.385,113.385,113.385,113.385,104,ATR
2023-01-10 14:55:00,113.36,113.36,113.36,113.36,699,ATR
2023-01-10 14:56:00,113.36,113.36,113.36,113.36,210,ATR
2023-01-10 14:57:00,113.365,113.365,113.365,113.365,371,ATR
2023-01-10 14:59:00,113.34,113.34,113.34,113.34,225,ATR
2023-01-10 15:00:00,113.31,113.31,113.31,113.31,182,ATR
2023-01-10 15:02:00,113.28,113.28,113.28,113.28,103,ATR
2023-01-10 15:03:00,113.29,113.2981,113.24,113.24,1056,ATR
2023-01-10 15:07:00,113.27,113.27,113.24,113.24,733,ATR
2023-01-10 15:11:00,113.2,113.2,113.2,113.2,867,ATR
2023-01-10 15:13:00,113.24,113.24,113.24,113.24,248,ATR
2023-01-10 15:14:00,113.24,113.24,113.24,113.24,236,ATR
2023-01-10 15:15:00,113.265,113.265,113.265,113.265,137,ATR
2023-01-10 15:20:00,113.28,113.28,113.28,113.28,233,ATR
2023-01-10 15:21:00,113.28,113.28,113.28,113.28,521,ATR
2023-01-10 15:25:00,113.18,113.19,113.17,113.19,970,ATR
2023-01-10 15:26:00,113.23,113.23,113.23,113.23,289,ATR
2023-01-10 15:30:00,113.27,113.29,113.27,113.29,665,ATR
2023-01-10 15:33:00,113.28,113.28,113.26,113.26,701,ATR
2023-01-10 15:35:00,113.28,113.28,113.28,113.28,131,ATR
2023-01-10 15:40:00,113.32,113.32,113.32,113.32,359,ATR
2023-01-10 15:41:00,113.27,113.27,113.27,113.27,505,ATR
2023-01-10 15:44:00,113.33,113.33,113.33,113.33,177,ATR
2023-01-10 15:47:00,113.37,113.37,113.31,113.31,783,ATR
2023-01-10 15:50:00,113.365,113.365,113.3,113.3,1756,ATR
2023-01-10 15:52:00,113.31,113.37,113.31,113.32,1831,ATR
2023-01-10 15:54:00,113.31,113.31,113.28,113.31,879,ATR
2023-01-10 15:55:00,113.31,113.31,113.29,113.31,460,ATR
2023-01-10 15:56:00,113.295,113.47,113.295,113.47,6151,ATR
2023-01-10 15:57:00,113.46,113.49,113.43,113.43,2364,ATR
2023-01-10 15:58:00,113.465,113.49,113.42,113.445,4711,ATR
2023-01-10 15:59:00,113.46,113.47,113.38,113.41,3434,ATR
2023-01-10 16:00:00,113.39,113.51,113.31,113.5,6902,ATR
2023-01-10 16:01:00,113.43,113.43,113.43,113.43,5423,ATR
2023-01-10 16:02:00,113.43,113.43,113.43,113.43,111,ATR
2023-01-11 09:31:00,113.58,113.58,113.58,113.58,2282,ATR
2023-01-11 09:33:00,114.2029,114.2029,114.2029,114.2029,332,ATR
2023-01-11 09:34:00,114.35,114.35,114.35,114.35,100,ATR
2023-01-11 09:38:00,114.43,114.43,114.43,114.43,101,ATR
2023-01-11 09:40:00,114.255,114.255,114.255,114.255,303,ATR
2023-01-11 09:41:00,114.265,114.265,114.265,114.265,100,ATR
2023-01-11 09:43:00,114.28,114.285,114.28,114.285,206,ATR
2023-01-11 09:44:00,114.26,114.26,114.26,114.26,101,ATR
2023-01-11 09:46:00,114.375,114.375,114.2,114.21,684,ATR
2023-01-11 09:49:00,114.05,114.06,114.05,114.06,215,ATR
2023-01-11 09:57:00,114.09,114.1,114.09,114.1,573,ATR
2023-01-11 09:58:00,114.2949,114.2949,114.15,114.15,319,ATR
2023-01-11 09:59:00,114.03,114.03,114.02,114.02,567,ATR
2023-01-11 10:05:00,114.09,114.09,114.09,114.09,198,ATR
2023-01-11 10:06:00,114.025,114.025,114.025,114.025,246,ATR
2023-01-11 10:07:00,114.085,114.11,114.085,114.11,487,ATR
2023-01-11 10:10:00,114.03,114.03,114.01,114.02,602,ATR
2023-01-11 10:11:00,114.045,114.1,114.02,114.02,1756,ATR
2023-01-11 10:12:00,114.05,114.08,114.04,114.05,1898,ATR
2023-01-11 10:15:00,113.96,113.99,113.96,113.99,907,ATR
2023-01-11 10:16:00,113.915,113.92,113.915,113.915,394,ATR
2023-01-11 10:19:00,113.93,113.93,113.93,113.93,170,ATR
2023-01-11 10:21:00,113.935,113.935,113.935,113.935,112,ATR
2023-01-11 10:22:00,113.935,113.94,113.93,113.93,676,ATR
2023-01-11 10:25:00,113.855,113.855,113.855,113.855,238,ATR
2023-01-11 10:26:00,113.875,113.875,113.875,113.875,406,ATR
2023-01-11 10:29:00,113.92,113.92,113.92,113.92,119,ATR
2023-01-11 10:30:00,113.92,113.935,113.92,113.935,614,ATR
2023-01-11 10:34:00,113.89,113.96,113.83,113.845,1625,ATR
2023-01-11 10:35:00,113.88,113.88,113.88,113.88,176,ATR
2023-01-11 10:37:00,113.845,113.845,113.845,113.845,348,ATR
2023-01-11 10:38:00,113.82,113.82,113.82,113.82,312,ATR
2023-01-11 10:40:00,113.85,113.85,113.85,113.85,106,ATR
2023-01-11 10:42:00,113.9,114.02,113.85,114.02,1803,ATR
2023-01-11 10:43:00,113.915,114.0,113.915,113.92,600,ATR
2023-01-11 10:46:00,113.925,113.9625,113.925,113.9625,294,ATR
2023-01-11 10:47:00,113.92,113.92,113.92,113.92,105,ATR
2023-01-11 10:50:00,113.97,113.97,113.915,113.94,1459,ATR
2023-01-11 10:51:00,114.0,114.01,113.935,113.96,768,ATR
2023-01-11 10:52:00,113.9,113.9,113.89,113.89,467,ATR
2023-01-11 10:54:00,113.87,113.87,113.74,113.74,1209,ATR
2023-01-11 10:55:00,113.75,113.75,113.75,113.75,179,ATR
2023-01-11 10:58:00,113.74,113.74,113.74,113.74,214,ATR
2023-01-11 11:00:00,113.7,113.7,113.7,113.7,302,ATR
2023-01-11 11:03:00,113.84,113.88,113.84,113.87,1215,ATR
2023-01-11 11:09:00,113.85,113.85,113.8,113.8,702,ATR
2023-01-11 11:11:00,113.8,113.8,113.8,113.8,115,ATR
2023-01-11 11:16:00,113.87,113.87,113.87,113.87,251,ATR
2023-01-11 11:18:00,113.74,113.74,113.74,113.74,490,ATR
2023-01-11 11:21:00,113.745,113.745,113.69,113.69,203,ATR
2023-01-11 11:25:00,113.64,113.64,113.64,113.64,263,ATR
2023-01-11 11:35:00,113.64,113.64,113.64,113.64,218,ATR
2023-01-11 11:37:00,113.57,113.57,113.57,113.57,221,ATR
2023-01-11 11:38:00,113.525,113.525,113.525,113.525,250,ATR
2023-01-11 11:40:00,113.56,113.59,113.56,113.59,1119,ATR
2023-01-11 12:11:00,113.76,113.76,113.76,113.76,223,ATR
2023-01-11 12:12:00,113.74,113.74,113.74,113.74,408,ATR
2023-01-11 12:16:00,113.74,113.74,113.74,113.74,477,ATR
2023-01-11 12:21:00,113.65,113.65,113.65,113.65,356,ATR
2023-01-11 12:31:00,113.65,113.65,113.65,113.65,273,ATR
2023-01-11 12:38:00,113.57,113.57,113.57,113.57,103,ATR
2023-01-11 12:41:00,113.66,113.66,113.63,113.66,521,ATR
2023-01-11 12:43:00,113.67,113.67,113.67,113.67,398,ATR
2023-01-11 12:44:00,113.75,113.75,113.75,113.75,168,ATR
2023-01-11 12:49:00,113.79,113.79,113.79,113.79,299,ATR
2023-01-11 13:11:00,113.84,113.84,113.84,113.84,325,ATR
2023-01-11 13:15:00,113.85,113.85,113.81,113.83,1006,ATR
2023-01-11 13:16:00,113.77,113.79,113.77,113.79,604,ATR
2023-01-11 13:17:00,113.74,113.74,113.74,113.74,504,ATR
2023-01-11 13:21:00,113.805,113.805,113.805,113.805,132,ATR
2023-01-11 13:23:00,113.7312,113.7312,113.7312,113.7312,432,ATR
2023-01-11 13:28:00,113.81,113.81,113.81,113.81,353,ATR
2023-01-11 13:32:00,113.86,113.86,113.86,113.86,159,ATR
2023-01-11 13:35:00,113.84,113.86,113.76,113.86,2473,ATR
2023-01-11 13:40:00,113.8,113.8,113.8,113.8,390,ATR
2023-01-11 13:41:00,113.88,113.88,113.88,113.88,220,ATR
2023-01-11 13:46:00,113.82,113.82,113.78,113.78,636,ATR
2023-01-11 13:48:00,113.78,113.78,113.78,113.78,168,ATR
2023-01-11 13:50:00,113.78,113.78,113.78,113.78,369,ATR
2023-01-11 13:51:00,113.73,113.73,113.73,113.73,344,ATR
2023-01-11 13:52:00,113.65,113.65,113.65,113.65,133,ATR
2023-01-11 13:54:00,113.57,113.57,113.52,113.52,470,ATR
2023-01-11 13:55:00,113.61,113.67,113.53,113.53,1593,ATR
2023-01-11 14:01:00,113.6,113.735,113.6,113.735,513,ATR
2023-01-11 14:12:00,113.74,113.74,113.74,113.74,840,ATR
2023-01-11 14:13:00,113.74,113.74,113.66,113.66,877,ATR
2023-01-11 14:14:00,113.629,113.629,113.629,113.629,100,ATR
2023-01-11 14:21:00,113.61,113.61,113.61,113.61,516,ATR
2023-01-11 14:24:00,113.52,113.545,113.52,113.545,238,ATR
2023-01-11 14:27:00,113.63,113.63,113.56,113.56,973,ATR
2023-01-11 14:32:00,113.685,113.685,113.685,113.685,381,ATR
2023-01-11 14:36:00,113.65,113.65,113.65,113.65,246,ATR
2023-01-11 14:38:00,113.72,113.73,113.69,113.69,564,ATR
2023-01-11 14:42:00,113.76,113.76,113.76,113.76,123,ATR
2023-01-11 14:43:00,113.755,113.755,113.755,113.755,130,ATR
2023-01-11 14:45:00,113.8,113.8,113.8,113.8,766,ATR
2023-01-11 14:48:00,113.83,113.83,113.83,113.83,204,ATR
2023-01-11 14:50:00,113.86,113.86,113.82,113.82,1037,ATR
2023-01-11 14:52:00,113.8,113.8,113.8,113.8,313,ATR
2023-01-11 14:53:00,113.75,113.75,113.73,113.73,511,ATR
2023-01-11 14:57:00,113.74,113.75,113.71,113.75,1225,ATR
2023-01-11 15:00:00,113.73,113.73,113.73,113.73,124,ATR
2023-01-11 15:03:00,113.805,113.85,113.805,113.85,815,ATR
2023-01-11 15:04:00,113.71,113.71,113.71,113.71,666,ATR
2023-01-11 15:06:00,113.81,113.81,113.81,113.81,179,ATR
2023-01-11 15:11:00,113.76,113.76,113.76,113.76,331,ATR
2023-01-11 15:13:00,113.78,113.78,113.76,113.76,1221,ATR
2023-01-11 15:14:00,113.77,113.77,113.71,113.71,200,ATR
2023-01-11 15:16:00,113.8,113.8,113.8,113.8,209,ATR
2023-01-11 15:17:00,113.87,113.88,113.84,113.84,1676,ATR
2023-01-11 15:23:00,113.83,113.84,113.83,113.84,1256,ATR
2023-01-11 15:24:00,113.79,113.79,113.79,113.79,504,ATR
2023-01-11 15:27:00,113.745,113.745,113.745,113.745,136,ATR
2023-01-11 15:30:00,113.68,113.71,113.68,113.71,509,ATR
2023-01-11 15:31:00,113.64,113.64,113.62,113.62,481,ATR
2023-01-11 15:33:00,113.54,113.54,113.54,113.54,333,ATR
2023-01-11 15:34:00,113.54,113.54,113.54,113.54,112,ATR
2023-01-11 15:37:00,113.5,113.52,113.5,113.51,999,ATR
2023-01-11 15:40:00,113.45,113.45,113.45,113.45,200,ATR
2023-01-11 15:41:00,113.5,113.5,113.5,113.5,484,ATR
2023-01-11 15:43:00,113.5,113.5,113.5,113.5,495,ATR
2023-01-11 15:44:00,113.45,113.45,113.45,113.45,386,ATR
2023-01-11 15:45:00,113.52,113.53,113.49,113.53,978,ATR
2023-01-11 15:46:00,113.55,113.55,113.55,113.55,806,ATR
2023-01-11 15:47:00,113.54,113.54,113.54,113.54,280,ATR
2023-01-11 15:48:00,113.57,113.64,113.57,113.64,1146,ATR
2023-01-11 15:50:00,113.56,113.56,113.56,113.56,333,ATR
2023-01-11 15:51:00,113.53,113.53,113.49,113.49,599,ATR
2023-01-11 15:52:00,113.51,113.51,113.51,113.51,1126,ATR
2023-01-11 15:53:00,113.46,113.525,113.46,113.525,1436,ATR
2023-01-11 15:54:00,113.53,113.62,113.53,113.62,1556,ATR
2023-01-11 15:55:00,113.62,113.62,113.57,113.6,2137,ATR
2023-01-11 15:56:00,113.65,113.65,113.59,113.59,1429,ATR
2023-01-11 15:57:00,113.591,113.67,113.591,113.63,3124,ATR
2023-01-11 15:58:00,113.65,113.66,113.56,113.62,5178,ATR
2023-01-11 15:59:00,113.59,113.64,113.59,113.63,1880,ATR
2023-01-11 16:00:00,113.625,113.65,113.46,113.46,14174,ATR
2023-01-11 16:01:00,113.46,113.46,113.46,113.46,2405,ATR
2023-01-12 09:31:00,113.69,113.785,113.69,113.755,1649,ATR
2023-01-12 09:35:00,113.72,113.72,113.72,113.72,173,ATR
2023-01-12 09:38:00,112.98,112.98,112.98,112.98,101,ATR
2023-01-12 09:42:00,113.09,113.09,113.09,113.09,120,ATR
2023-01-12 09:44:00,112.96,112.96,112.96,112.96,277,ATR
2023-01-12 09:49:00,112.3961,112.3961,112.3961,112.3961,154,ATR
2023-01-12 09:52:00,112.91,112.91,112.91,112.91,763,ATR
2023-01-12 09:54:00,113.01,113.01,113.01,113.01,102,ATR
2023-01-12 09:55:00,112.89,112.89,112.89,112.89,139,ATR
2023-01-12 09:58:00,113.01,113.01,113.01,113.01,589,ATR
2023-01-12 09:59:00,113.025,113.24,113.025,113.24,535,ATR
2023-01-12 10:00:00,113.4,113.4,113.4,113.4,206,ATR
2023-01-12 10:01:00,113.205,113.22,113.2,113.2,529,ATR
2023-01-12 10:02:00,113.225,113.235,113.225,113.235,506,ATR
2023-01-12 10:03:00,113.25,113.4,113.2,113.24,1465,ATR
2023-01-12 10:04:00,113.21,113.245,113.21,113.245,445,ATR
2023-01-12 10:07:00,113.21,113.21,113.21,113.21,105,ATR
2023-01-12 10:09:00,113.17,113.17,113.125,113.125,914,ATR
2023-01-12 10:10:00,113.26,113.26,113.13,113.13,715,ATR
2023-01-12 10:11:00,113.13,113.26,113.13,113.235,714,ATR
2023-01-12 10:12:00,113.235,113.46,113.235,113.46,2000,ATR
2023-01-12 10:13:00,113.365,113.56,113.365,113.43,1595,ATR
2023-01-12 10:14:00,113.4094,113.4094,113.4094,113.4094,256,ATR
2023-01-12 10:15:00,113.31,113.41,113.22,113.41,2567,ATR
2023-01-12 10:20:00,113.38,113.38,113.38,113.38,151,ATR
2023-01-12 10:21:00,113.46,113.46,113.46,113.46,168,ATR
2023-01-12 10:23:00,113.35,113.35,113.34,113.34,777,ATR
2023-01-12 10:24:00,113.43,113.465,113.43,113.465,661,ATR
2023-01-12 10:26:00,113.46,113.46,113.405,113.41,558,ATR
2023-01-12 10:29:00,113.24,113.24,113.24,113.24,636,ATR
2023-01-12 10:30:00,113.31,113.31,113.25,113.25,502,ATR
2023-01-12 10:31:00,113.17,113.21,113.165,113.21,1021,ATR
2023-01-12 10:33:00,113.25,113.31,113.25,113.31,873,ATR
2023-01-12 10:34:00,113.3,113.3,113.3,113.3,224,ATR
2023-01-12 10:35:00,113.345,113.36,113.345,113.36,900,ATR
2023-01-12 10:36:00,113.38,113.45,113.34,113.38,4290,ATR
2023-01-12 10:41:00,113.52,113.6,113.46,113.46,1501,ATR
2023-01-12 10:42:00,113.505,113.51,113.505,113.51,257,ATR
2023-01-12 10:43:00,113.41,113.41,113.41,113.41,457,ATR
2023-01-12 10:44:00,113.33,113.33,113.33,113.33,154,ATR
2023-01-12 10:45:00,113.31,113.31,113.31,113.31,263,ATR
2023-01-12 10:46:00,113.21,113.21,113.21,113.21,140,ATR
2023-01-12 10:48:00,113.11,113.11,113.11,113.11,100,ATR
2023-01-12 10:49:00,112.99,112.99,112.99,112.99,100,ATR
2023-01-12 10:53:00,113.31,113.46,113.24,113.37,1232,ATR
2023-01-12 10:55:00,113.46,113.46,113.46,113.46,109,ATR
2023-01-12 10:57:00,113.46,113.47,113.42,113.42,1019,ATR
2023-01-12 10:58:00,113.36,113.36,113.36,113.36,288,ATR
2023-01-12 11:00:00,113.3,113.3,113.3,113.3,544,ATR
2023-01-12 11:01:00,113.07,113.07,113.07,113.07,277,ATR
2023-01-12 11:03:00,113.08,113.08,113.08,113.08,458,ATR
2023-01-12 11:06:00,113.22,113.22,113.21,113.21,428,ATR
2023-01-12 11:11:00,113.29,113.3,113.29,113.3,587,ATR
2023-01-12 11:14:00,113.26,113.26,113.09,113.09,2023,ATR
2023-01-12 11:15:00,113.28,113.28,113.2,113.22,2317,ATR
2023-01-12 11:17:00,113.19,113.19,113.19,113.19,404,ATR
2023-01-12 11:18:00,113.115,113.115,113.115,113.115,339,ATR
2023-01-12 11:21:00,113.115,113.19,113.115,113.18,1341,ATR
2023-01-12 11:22:00,113.18,113.18,113.09,113.14,2693,ATR
2023-01-12 11:24:00,113.14,113.16,113.08,113.08,2423,ATR
2023-01-12 11:27:00,113.03,113.03,113.03,113.03,416,ATR
2023-01-12 11:28:00,113.06,113.06,113.04,113.04,203,ATR
2023-01-12 11:29:00,113.04,113.12,112.95,112.95,4513,ATR
2023-01-12 11:30:00,113.035,113.035,113.035,113.035,131,ATR
2023-01-12 11:32:00,112.905,112.905,112.905,112.905,214,ATR
2023-01-12 11:39:00,113.03,113.03,113.03,113.03,817,ATR
2023-01-12 11:40:00,112.91,112.93,112.91,112.92,1320,ATR
2023-01-12 11:41:00,113.04,113.04,113.04,113.04,308,ATR
2023-01-12 11:42:00,112.975,112.975,112.975,112.975,590,ATR
2023-01-12 11:44:00,113.09,113.09,113.04,113.04,460,ATR
2023-01-12 11:45:00,113.05,113.05,113.045,113.045,215,ATR
2023-01-12 11:50:00,112.99,112.99,112.98,112.98,381,ATR
2023-01-12 11:56:00,112.975,112.975,112.975,112.975,139,ATR
2023-01-12 11:57:00,113.0199,113.04,113.0199,113.04,3145,ATR
2023-01-12 11:59:00,113.1,113.12,113.1,113.12,905,ATR
2023-01-12 12:00:00,113.115,113.14,113.1,113.11,1149,ATR
2023-01-12 12:01:00,113.06,113.06,113.06,113.06,453,ATR
2023-01-12 12:09:00,113.15,113.15,113.15,113.15,409,ATR
2023-01-12 12:11:00,113.165,113.18,113.165,113.165,509,ATR
2023-01-12 12:12:00,113.16,113.16,113.09,113.15,2116,ATR
2023-01-12 12:13:00,113.19,113.36,113.19,113.36,2234,ATR
2023-01-12 12:18:00,113.38,113.38,113.38,113.38,159,ATR
2023-01-12 12:19:00,113.39,113.39,113.39,113.39,104,ATR
2023-01-12 12:21:00,113.35,113.35,113.35,113.35,295,ATR
2023-01-12 12:22:00,113.3359,113.3359,113.3359,113.3359,313,ATR
2023-01-12 12:27:00,113.39,113.465,113.39,113.46,721,ATR
2023-01-12 12:28:00,113.48,113.48,113.35,113.35,2069,ATR
2023-01-12 12:34:00,113.275,113.275,113.275,113.275,100,ATR
2023-01-12 12:42:00,113.29,113.305,113.29,113.305,718,ATR
2023-01-12 12:43:00,113.31,113.31,113.31,113.31,162,ATR
2023-01-12 12:45:00,113.28,113.28,113.21,113.21,460,ATR
2023-01-12 12:46:00,113.2758,113.28,113.24,113.28,739,ATR
2023-01-12 12:47:00,113.315,113.315,113.315,113.315,100,ATR
2023-01-12 12:51:00,113.27,113.27,113.27,113.27,111,ATR
2023-01-12 12:54:00,113.385,113.385,113.385,113.385,154,ATR
2023-01-12 12:55:00,113.36,113.36,113.36,113.36,139,ATR
2023-01-12 13:02:00,113.27,113.27,113.27,113.27,281,ATR
2023-01-12 13:03:00,113.28,113.28,113.21,113.21,577,ATR
2023-01-12 13:07:00,113.245,113.245,113.245,113.245,121,ATR
2023-01-12 13:08:00,113.19,113.19,113.19,113.19,326,ATR
2023-01-12 13:09:00,113.225,113.225,113.225,113.225,310,ATR
2023-01-12 13:10:00,113.225,113.28,113.225,113.26,956,ATR
2023-01-12 13:11:00,113.25,113.25,113.24,113.24,661,ATR
2023-01-12 13:12:00,113.24,113.24,113.24,113.24,215,ATR
2023-01-12 13:13:00,113.26,113.27,113.21,113.21,2473,ATR
2023-01-12 13:14:00,113.23,113.29,113.23,113.26,1752,ATR
2023-01-12 13:15:00,113.225,113.26,113.225,113.26,559,ATR
2023-01-12 13:16:00,113.28,113.28,113.28,113.28,113,ATR
2023-01-12 13:17:00,113.325,113.325,113.325,113.325,110,ATR
2023-01-12 13:18:00,113.31,113.31,113.31,113.31,133,ATR
2023-01-12 13:19:00,113.3059,113.3059,113.25,113.25,950,ATR
2023-01-12 13:20:00,113.29,113.29,113.29,113.29,319,ATR
2023-01-12 13:21:00,113.27,113.27,113.27,113.27,136,ATR
2023-01-12 13:22:00,113.3,113.3,113.3,113.3,133,ATR
2023-01-12 13:26:00,113.24,113.24,113.22,113.24,860,ATR
2023-01-12 13:27:00,113.21,113.21,113.18,113.18,461,ATR
2023-01-12 13:28:00,113.13,113.13,113.13,113.13,258,ATR
2023-01-12 13:29:00,112.91,112.91,112.91,112.91,107,ATR
2023-01-12 13:30:00,112.91,112.91,112.91,112.91,413,ATR
2023-01-12 13:34:00,112.93,112.93,112.93,112.93,211,ATR
2023-01-12 13:35:00,112.99,112.99,112.99,112.99,134,ATR
2023-01-12 13:36:00,113.03,113.03,113.03,113.03,161,ATR
2023-01-12 13:38:00,113.13,113.13,113.13,113.13,281,ATR
2023-01-12 13:46:00,113.24,113.25,113.2,113.25,751,ATR
2023-01-12 13:47:00,113.27,113.27,113.27,113.27,144,ATR
2023-01-12 13:49:00,113.27,113.27,113.27,113.27,132,ATR
2023-01-12 13:52:00,113.265,113.265,113.265,113.265,107,ATR
2023-01-12 13:54:00,113.27,113.33,113.27,113.28,1005,ATR
2023-01-12 13:55:00,113.43,113.43,113.43,113.43,157,ATR
2023-01-12 13:58:00,113.465,113.465,113.465,113.465,208,ATR
2023-01-12 13:59:00,113.53,113.53,113.465,113.465,254,ATR
2023-01-12 14:01:00,113.465,113.465,113.465,113.465,116,ATR
2023-01-12 14:04:00,113.4,113.4,113.4,113.4,444,ATR
2023-01-12 14:09:00,113.45,113.51,113.45,113.51,506,ATR
2023-01-12 14:10:00,113.44,113.44,113.36,113.36,1353,ATR
2023-01-12 14:16:00,113.36,113.36,113.36,113.36,102,ATR
2023-01-12 14:18:00,113.31,113.31,113.31,113.31,396,ATR
2023-01-12 14:25:00,113.31,113.31,113.31,113.31,186,ATR
2023-01-12 14:26:00,113.36,113.36,113.36,113.36,636,ATR
2023-01-12 14:27:00,113.3,113.3,113.3,113.3,613,ATR
2023-01-12 14:29:00,113.36,113.36,113.31,113.31,235,ATR
2023-01-12 14:32:00,113.4,113.4,113.36,113.36,337,ATR
2023-01-12 14:36:00,113.36,113.36,113.36,113.36,192,ATR
2023-01-12 14:37:00,113.39,113.39,113.36,113.36,313,ATR
2023-01-12 14:43:00,113.41,113.41,113.41,113.41,186,ATR
2023-01-12 14:44:00,113.3,113.31,113.3,113.3,738,ATR
2023-01-12 14:46:00,113.41,113.41,113.41,113.41,228,ATR
2023-01-12 14:47:00,113.41,113.41,113.405,113.405,244,ATR
2023-01-12 14:48:00,113.46,113.46,113.4116,113.42,1455,ATR
2023-01-12 14:51:00,113.38,113.38,113.38,113.38,227,ATR
2023-01-12 14:52:00,113.35,113.35,113.34,113.34,389,ATR
2023-01-12 14:53:00,113.39,113.39,113.25,113.25,731,ATR
2023-01-12 14:54:00,113.24,113.24,113.24,113.24,272,ATR
2023-01-12 14:56:00,113.27,113.27,113.27,113.27,171,ATR
2023-01-12 14:58:00,113.22,113.22,113.2,113.21,880,ATR
2023-01-12 15:00:00,113.29,113.3,113.29,113.3,721,ATR
2023-01-12 15:07:00,113.41,113.41,113.41,113.41,212,ATR
2023-01-12 15:08:00,113.37,113.37,113.33,113.33,846,ATR
2023-01-12 15:10:00,113.26,113.26,113.26,113.26,148,ATR
2023-01-12 15:11:00,113.21,113.21,113.21,113.21,245,ATR
2023-01-12 15:16:00,113.12,113.12,113.12,113.12,127,ATR
2023-01-12 15:18:00,113.11,113.11,113.11,113.11,320,ATR
2023-01-12 15:20:00,113.12,113.12,113.12,113.12,118,ATR
2023-01-12 15:21:00,113.05,113.05,113.05,113.05,155,ATR
2023-01-12 15:23:00,113.205,113.205,113.2,113.2,445,ATR
2023-01-12 15:26:00,113.21,113.21,113.2,113.2,447,ATR
2023-01-12 15:27:00,113.21,113.24,113.21,113.24,561,ATR
2023-01-12 15:30:00,113.28,113.28,113.28,113.28,571,ATR
2023-01-12 15:31:00,113.281,113.281,113.281,113.281,132,ATR
2023-01-12 15:32:00,113.36,113.36,113.34,113.355,706,ATR
2023-01-12 15:35:00,113.34,113.34,113.34,113.34,258,ATR
2023-01-12 15:36:00,113.335,113.335,113.335,113.335,146,ATR
2023-01-12 15:38:00,113.33,113.33,113.33,113.33,181,ATR
2023-01-12 15:39:00,113.29,113.29,113.25,113.26,2298,ATR
2023-01-12 15:41:00,113.31,113.31,113.31,113.31,159,ATR
2023-01-12 15:42:00,113.325,113.325,113.325,113.325,146,ATR
2023-01-12 15:44:00,113.29,113.29,113.29,113.29,675,ATR
2023-01-12 15:45:00,113.305,113.305,113.305,113.305,165,ATR
2023-01-12 15:46:00,113.26,113.26,113.24,113.24,1266,ATR
2023-01-12 15:48:00,113.23,113.23,113.23,113.23,468,ATR
2023-01-12 15:49:00,113.21,113.21,113.18,113.18,392,ATR
2023-01-12 15:50:00,113.24,113.38,113.24,113.38,879,ATR
2023-01-12 15:51:00,113.25,113.38,113.25,113.38,1660,ATR
2023-01-12 15:52:00,113.42,113.42,113.42,113.42,1073,ATR
2023-01-12 15:53:00,113.41,113.41,113.4,113.4,1068,ATR
2023-01-12 15:54:00,113.46,113.46,113.46,113.46,287,ATR
2023-01-12 15:55:00,113.48,113.52,113.471,113.471,1089,ATR
2023-01-12 15:56:00,113.47,113.47,113.38,113.43,2763,ATR
2023-01-12 15:57:00,113.49,113.51,113.48,113.48,1534,ATR
2023-01-12 15:58:00,113.55,113.62,113.55,113.62,1307,ATR
2023-01-12 15:59:00,113.6,113.6,113.6,113.6,1001,ATR
2023-01-12 16:00:00,113.58,113.58,113.44,113.44,8691,ATR
2023-01-12 16:01:00,113.5,113.5,113.5,113.5,3068,ATR
2023-01-12 16:02:00,113.5,113.5,113.5,113.5,1845,ATR
2023-01-13 09:31:00,113.21,113.21,113.21,113.21,1103,ATR
2023-01-13 09:33:00,113.7648,113.7648,113.7648,113.7648,205,ATR
2023-01-13 09:36:00,113.31,113.31,113.31,113.31,111,ATR
2023-01-13 09:43:00,113.42,113.42,113.39,113.39,315,ATR
2023-01-13 09:47:00,113.51,113.51,113.51,113.51,519,ATR
2023-01-13 09:48:00,113.54,113.55,113.54,113.55,230,ATR
2023-01-13 09:50:00,113.73,113.73,113.73,113.73,206,ATR
2023-01-13 09:51:00,113.67,113.855,113.67,113.855,231,ATR
2023-01-13 09:52:00,113.7,113.74,113.36,113.72,1496,ATR
2023-01-13 09:57:00,113.54,113.54,113.54,113.54,101,ATR
2023-01-13 09:59:00,113.55,113.55,113.55,113.55,100,ATR
2023-01-13 10:00:00,113.66,113.66,113.595,113.595,337,ATR
2023-01-13 10:01:00,113.71,113.87,113.71,113.87,946,ATR
2023-01-13 10:03:00,113.915,113.915,113.91,113.91,240,ATR
2023-01-13 10:04:00,113.92,113.925,113.92,113.925,547,ATR
2023-01-13 10:05:00,113.93,113.93,113.93,113.93,161,ATR
2023-01-13 10:07:00,113.9,113.9,113.9,113.9,216,ATR
2023-01-13 10:09:00,113.72,113.72,113.64,113.64,881,ATR
2023-01-13 10:12:00,113.665,113.665,113.665,113.665,205,ATR
2023-01-13 10:14:00,113.665,113.665,113.665,113.665,125,ATR
2023-01-13 10:16:00,113.69,113.78,113.655,113.655,934,ATR
2023-01-13 10:20:00,113.74,113.74,113.65,113.65,690,ATR
2023-01-13 10:23:00,113.68,113.76,113.66,113.66,1836,ATR
2023-01-13 10:25:00,113.68,113.68,113.65,113.65,301,ATR
2023-01-13 10:30:00,113.72,113.8,113.72,113.8,1080,ATR
2023-01-13 10:32:00,113.64,113.64,113.64,113.64,489,ATR
2023-01-13 10:41:00,113.65,113.84,113.65,113.8,466,ATR
2023-01-13 10:43:00,113.93,113.93,113.825,113.83,534,ATR
2023-01-13 10:45:00,113.66,113.66,113.66,113.66,572,ATR
2023-01-13 10:47:00,113.695,113.695,113.695,113.695,152,ATR
2023-01-13 10:50:00,113.695,113.695,113.695,113.695,142,ATR
2023-01-13 10:51:00,113.76,113.76,113.76,113.76,139,ATR
2023-01-13 10:54:00,113.48,113.48,113.48,113.48,271,ATR
2023-01-13 10:56:00,113.65,113.65,113.615,113.64,847,ATR
2023-01-13 10:57:00,113.635,113.635,113.635,113.635,313,ATR
2023-01-13 10:59:00,113.58,113.58,113.57,113.57,804,ATR
2023-01-13 11:04:00,113.48,113.48,113.48,113.48,116,ATR
2023-01-13 11:05:00,113.4198,113.4198,113.4198,113.4198,148,ATR
2023-01-13 11:06:00,113.58,113.59,113.58,113.59,500,ATR
2023-01-13 11:18:00,113.605,113.605,113.58,113.58,470,ATR
2023-01-13 11:23:00,113.68,113.68,113.68,113.68,597,ATR
2023-01-13 11:29:00,113.63,113.63,113.63,113.63,860,ATR
2023-01-13 11:31:00,113.66,113.66,113.66,113.66,100,ATR
2023-01-13 11:33:00,113.52,113.59,113.52,113.59,440,ATR
2023-01-13 11:37:00,113.56,113.56,113.56,113.56,230,ATR
2023-01-13 11:41:00,113.55,113.55,113.52,113.53,800,ATR
2023-01-13 11:44:00,113.61,113.61,113.61,113.61,138,ATR
2023-01-13 11:45:00,113.66,113.66,113.66,113.66,137,ATR
2023-01-13 11:47:00,113.57,113.57,113.57,113.57,142,ATR
2023-01-13 11:49:00,113.59,113.65,113.59,113.65,914,ATR
2023-01-13 11:54:00,113.72,113.72,113.72,113.72,343,ATR
2023-01-13 12:00:00,113.82,113.82,113.78,113.78,808,ATR
2023-01-13 12:02:00,113.7,113.7,113.7,113.7,167,ATR
2023-01-13 12:11:00,113.78,113.78,113.78,113.78,173,ATR
2023-01-13 12:14:00,113.83,113.855,113.82,113.82,634,ATR
2023-01-13 12:16:00,113.82,113.82,113.82,113.82,120,ATR
2023-01-13 12:17:00,113.81,113.81,113.81,113.81,103,ATR
2023-01-13 12:20:00,113.81,113.81,113.81,113.81,319,ATR
2023-01-13 12:25:00,113.8146,113.8146,113.8146,113.8146,121,ATR
2023-01-13 12:29:00,113.81,113.81,113.81,113.81,106,ATR
2023-01-13 12:31:00,113.805,113.88,113.805,113.86,840,ATR
2023-01-13 12:32:00,113.8,113.8,113.8,113.8,235,ATR
2023-01-13 12:37:00,113.76,113.76,113.76,113.76,448,ATR
2023-01-13 12:43:00,113.74,113.74,113.74,113.74,325,ATR
2023-01-13 12:45:00,113.86,113.86,113.855,113.855,1362,ATR
2023-01-13 12:58:00,114.035,114.035,114.0,114.0,430,ATR
2023-01-13 13:01:00,114.06,114.06,114.06,114.06,152,ATR
2023-01-13 13:06:00,113.94,113.94,113.93,113.93,556,ATR
2023-01-13 13:13:00,113.97,113.97,113.97,113.97,147,ATR
2023-01-13 13:15:00,113.95,113.95,113.95,113.95,950,ATR
2023-01-13 13:16:00,114.01,114.01,114.01,114.01,110,ATR
2023-01-13 13:18:00,114.06,114.06,114.06,114.06,120,ATR
2023-01-13 13:21:00,113.96,113.96,113.96,113.96,295,ATR
2023-01-13 13:23:00,113.93,113.93,113.93,113.93,242,ATR
2023-01-13 13:24:00,113.9,113.9,113.9,113.9,272,ATR
2023-01-13 13:28:00,113.86,113.86,113.86,113.86,118,ATR
2023-01-13 13:33:00,113.98,113.99,113.905,113.99,600,ATR
2023-01-13 13:40:00,113.99,113.99,113.99,113.99,451,ATR
2023-01-13 13:41:00,114.04,114.04,114.04,114.04,320,ATR
2023-01-13 13:43:00,114.1,114.11,114.1,114.11,447,ATR
2023-01-13 13:49:00,114.31,114.31,114.31,114.31,100,ATR
2023-01-13 13:50:00,114.245,114.245,114.245,114.245,735,ATR
2023-01-13 13:52:00,114.2609,114.2609,114.2609,114.2609,477,ATR
2023-01-13 13:57:00,114.255,114.255,114.255,114.255,316,ATR
2023-01-13 14:00:00,114.16,114.16,114.16,114.16,430,ATR
2023-01-13 14:01:00,114.2,114.2,114.2,114.2,362,ATR
2023-01-13 14:02:00,114.19,114.19,113.8,113.94,16852,ATR
2023-01-13 14:03:00,113.9,113.9,113.85,113.85,1871,ATR
2023-01-13 14:04:00,113.86,113.86,113.86,113.86,649,ATR
2023-01-13 14:11:00,113.93,113.93,113.925,113.925,477,ATR
2023-01-13 14:12:00,113.9,113.9,113.9,113.9,205,ATR
2023-01-13 14:13:00,113.9,113.9,113.9,113.9,151,ATR
2023-01-13 14:15:00,113.9,113.9,113.9,113.9,149,ATR
2023-01-13 14:16:00,113.9,113.9,113.9,113.9,192,ATR
2023-01-13 14:18:00,113.84,113.84,113.84,113.84,528,ATR
2023-01-13 14:23:00,113.75,113.75,113.75,113.75,146,ATR
2023-01-13 14:27:00,113.81,113.83,113.81,113.83,472,ATR
2023-01-13 14:29:00,113.78,113.78,113.775,113.775,209,ATR
2023-01-13 14:31:00,113.71,113.71,113.68,113.68,557,ATR
2023-01-13 14:34:00,113.61,113.61,113.61,113.61,407,ATR
2023-01-13 14:36:00,113.5677,113.5677,113.5677,113.5677,856,ATR
2023-01-13 14:38:00,113.59,113.6,113.59,113.6,425,ATR
2023-01-13 14:39:00,113.64,113.64,113.64,113.64,424,ATR
2023-01-13 14:44:00,113.74,113.74,113.74,113.74,294,ATR
2023-01-13 14:48:00,113.76,113.76,113.755,113.755,474,ATR
2023-01-13 14:49:00,113.75,113.75,113.75,113.75,200,ATR
2023-01-13 14:52:00,113.79,113.79,113.79,113.79,117,ATR
2023-01-13 14:53:00,113.8,113.8,113.75,113.75,893,ATR
2023-01-13 14:55:00,113.76,113.76,113.76,113.76,122,ATR
2023-01-13 14:57:00,113.75,113.8,113.75,113.77,630,ATR
2023-01-13 14:59:00,113.81,113.81,113.81,113.81,247,ATR
2023-01-13 15:00:00,113.84,113.84,113.84,113.84,605,ATR
2023-01-13 15:01:00,113.8668,113.8668,113.8134,113.8134,989,ATR
2023-01-13 15:05:00,113.925,113.925,113.88,113.88,388,ATR
2023-01-13 15:06:00,113.92,113.92,113.92,113.92,124,ATR
2023-01-13 15:08:00,113.89,113.93,113.89,113.93,601,ATR
2023-01-13 15:09:00,113.89,113.89,113.89,113.89,1045,ATR
2023-01-13 15:11:00,113.905,113.92,113.9,113.92,379,ATR
2023-01-13 15:12:00,113.93,113.93,113.88,113.88,1431,ATR
2023-01-13 15:14:00,113.9017,113.9017,113.9017,113.9017,157,ATR
2023-01-13 15:15:00,113.895,113.9,113.895,113.9,669,ATR
2023-01-13 15:19:00,113.915,113.93,113.915,113.93,276,ATR
2023-01-13 15:21:00,113.945,113.955,113.92,113.92,587,ATR
2023-01-13 15:23:00,113.945,113.945,113.945,113.945,387,ATR
2023-01-13 15:24:00,113.94,113.94,113.94,113.94,337,ATR
2023-01-13 15:25:00,113.965,113.965,113.965,113.965,120,ATR
2023-01-13 15:26:00,113.99,113.99,113.96,113.97,1396,ATR
2023-01-13 15:27:00,113.95,113.96,113.95,113.96,500,ATR
2023-01-13 15:28:00,113.955,113.955,113.95,113.95,230,ATR
2023-01-13 15:29:00,113.96,113.96,113.96,113.96,230,ATR
2023-01-13 15:30:00,113.96,113.96,113.96,113.96,137,ATR
2023-01-13 15:32:00,113.99,114.01,113.96,113.99,1905,ATR
2023-01-13 15:33:00,113.98,114.0,113.89,113.89,2068,ATR
2023-01-13 15:34:00,113.9,113.9,113.9,113.9,554,ATR
2023-01-13 15:35:00,113.84,113.84,113.8,113.8,2912,ATR
2023-01-13 15:36:00,113.8,113.85,113.79,113.83,4665,ATR
2023-01-13 15:37:00,113.8,113.82,113.79,113.8,4525,ATR
2023-01-13 15:38:00,113.8,113.83,113.7602,113.775,2122,ATR
2023-01-13 15:39:00,113.8,113.85,113.8,113.8,3817,ATR
2023-01-13 15:40:00,113.82,113.82,113.795,113.8,2327,ATR
2023-01-13 15:41:00,113.8,113.805,113.745,113.78,4443,ATR
2023-01-13 15:42:00,113.8,113.8,113.78,113.78,1619,ATR
2023-01-13 15:43:00,113.75,113.8,113.75,113.8,1039,ATR
2023-01-13 15:44:00,113.77,113.785,113.75,113.75,2186,ATR
2023-01-13 15:45:00,113.72,113.74,113.72,113.74,542,ATR
2023-01-13 15:46:00,113.68,113.68,113.63,113.63,1630,ATR
2023-01-13 15:47:00,113.65,113.71,113.65,113.71,1201,ATR
2023-01-13 15:48:00,113.68,113.68,113.63,113.66,1645,ATR
2023-01-13 15:49:00,113.655,113.67,113.655,113.67,554,ATR
2023-01-13 15:50:00,113.71,113.71,113.64,113.68,2363,ATR
2023-01-13 15:51:00,113.67,113.72,113.63,113.72,1463,ATR
2023-01-13 15:52:00,113.72,113.72,113.715,113.715,698,ATR
2023-01-13 15:53:00,113.715,113.77,113.715,113.77,1233,ATR
2023-01-13 15:54:00,113.8,113.8,113.79,113.79,748,ATR
2023-01-13 15:55:00,113.8,113.88,113.8,113.86,1066,ATR
2023-01-13 15:56:00,113.91,113.91,113.8,113.83,3092,ATR
2023-01-13 15:57:00,113.83,113.85,113.8,113.83,2589,ATR
2023-01-13 15:58:00,113.8,113.83,113.8,113.83,1517,ATR
2023-01-13 15:59:00,113.835,113.84,113.79,113.82,3421,ATR
2023-01-13 16:00:00,113.82,113.97,113.78,113.97,7591,ATR
2023-01-13 16:01:00,113.97,113.97,113.97,113.97,2258,ATR
2023-01-13 16:02:00,113.97,113.97,113.97,113.97,885,ATR
