date,1. open,2. high,3. low,4. close,5. volume,Ticker
2023-01-27 16:01:00,112.73,112.73,112.73,112.73,1190.0,ATR
2023-01-27 16:00:00,112.61,112.75,112.61,112.74,17845.0,ATR
2023-01-27 15:59:00,112.63,112.63,112.61,112.61,1180.0,ATR
2023-01-27 15:58:00,112.58,112.6,112.56,112.6,4078.0,ATR
2023-01-27 15:57:00,112.62,112.62,112.56,112.58,2810.0,ATR
2023-01-27 15:56:00,112.63,112.63,112.56,112.61,4067.0,ATR
2023-01-27 15:55:00,112.61,112.61,112.6,112.605,2193.0,ATR
2023-01-27 15:54:00,112.59,112.59,112.57,112.58,737.0,ATR
2023-01-27 15:53:00,112.67,112.68,112.65,112.65,1209.0,ATR
2023-01-27 15:52:00,112.73,112.73,112.68,112.68,1292.0,ATR
2023-01-27 15:51:00,112.73,112.73,112.73,112.73,296.0,ATR
2023-01-27 15:50:00,112.7,112.73,112.68,112.73,867.0,ATR
2023-01-27 15:48:00,112.705,112.73,112.705,112.73,586.0,ATR
2023-01-27 15:47:00,112.7,112.73,112.7,112.73,721.0,ATR
2023-01-27 15:46:00,112.69,112.69,112.69,112.69,513.0,ATR
2023-01-27 15:45:00,112.77,112.77,112.725,112.73,4928.0,ATR
2023-01-27 15:44:00,112.825,112.825,112.77,112.77,822.0,ATR
2023-01-27 15:43:00,112.85,112.85,112.83,112.83,2082.0,ATR
2023-01-27 15:42:00,112.89,112.89,112.89,112.89,436.0,ATR
2023-01-27 15:40:00,112.84,112.84,112.84,112.84,313.0,ATR
2023-01-27 15:39:00,112.84,112.84,112.825,112.825,965.0,ATR
2023-01-27 15:37:00,112.82,112.83,112.82,112.83,379.0,ATR
2023-01-27 15:36:00,112.8,112.8,112.8,112.8,663.0,ATR
2023-01-27 15:35:00,112.79,112.79,112.79,112.79,612.0,ATR
2023-01-27 15:34:00,112.79,112.79,112.79,112.79,377.0,ATR
2023-01-27 15:33:00,112.79,112.79,112.79,112.79,106.0,ATR
2023-01-27 15:31:00,112.83,112.83,112.79,112.79,496.0,ATR
2023-01-27 15:29:00,112.76,112.81,112.76,112.81,295.0,ATR
2023-01-27 15:28:00,112.72,112.72,112.72,112.72,153.0,ATR
2023-01-27 15:27:00,112.68,112.69,112.67,112.69,1077.0,ATR
2023-01-27 15:26:00,112.715,112.715,112.715,112.715,307.0,ATR
2023-01-27 15:24:00,112.73,112.73,112.72,112.72,479.0,ATR
2023-01-27 15:23:00,112.715,112.735,112.715,112.73,1125.0,ATR
2023-01-27 15:21:00,112.81,112.82,112.78,112.78,1750.0,ATR
2023-01-27 15:20:00,112.81,112.81,112.81,112.81,184.0,ATR
2023-01-27 15:19:00,112.835,112.835,112.835,112.835,179.0,ATR
2023-01-27 15:18:00,112.81,112.84,112.81,112.84,926.0,ATR
2023-01-27 15:17:00,112.83,112.83,112.8,112.8,1846.0,ATR
2023-01-27 15:16:00,112.88,112.94,112.88,112.94,476.0,ATR
2023-01-27 15:14:00,112.88,112.88,112.82,112.82,232.0,ATR
2023-01-27 15:13:00,112.87,112.875,112.855,112.875,525.0,ATR
2023-01-27 15:08:00,112.82,112.855,112.82,112.855,314.0,ATR
2023-01-27 15:07:00,112.85,112.85,112.85,112.85,158.0,ATR
2023-01-27 15:05:00,112.765,112.765,112.73,112.73,405.0,ATR
2023-01-27 15:04:00,112.715,112.715,112.715,112.715,155.0,ATR
2023-01-27 15:02:00,112.69,112.69,112.69,112.69,1297.0,ATR
2023-01-27 15:01:00,112.73,112.73,112.73,112.73,233.0,ATR
2023-01-27 15:00:00,112.675,112.675,112.675,112.675,135.0,ATR
2023-01-27 14:55:00,112.685,112.685,112.685,112.685,241.0,ATR
2023-01-27 14:52:00,112.67,112.67,112.67,112.67,443.0,ATR
2023-01-27 14:51:00,112.68,112.68,112.67,112.67,231.0,ATR
2023-01-27 14:50:00,112.645,112.645,112.645,112.645,216.0,ATR
2023-01-27 14:49:00,112.64,112.64,112.64,112.64,283.0,ATR
2023-01-27 14:48:00,112.64,112.64,112.64,112.64,117.0,ATR
2023-01-27 14:45:00,112.635,112.635,112.635,112.635,301.0,ATR
2023-01-27 14:40:00,112.55,112.55,112.55,112.55,234.0,ATR
2023-01-27 14:39:00,112.55,112.55,112.55,112.55,377.0,ATR
2023-01-27 14:36:00,112.52,112.55,112.515,112.545,893.0,ATR
2023-01-27 14:35:00,112.54,112.54,112.54,112.54,268.0,ATR
2023-01-27 14:34:00,112.545,112.545,112.545,112.545,109.0,ATR
2023-01-27 14:33:00,112.54,112.555,112.5,112.555,1894.0,ATR
2023-01-27 14:32:00,112.5,112.5,112.5,112.5,243.0,ATR
2023-01-27 14:31:00,112.495,112.5,112.495,112.5,348.0,ATR
2023-01-27 14:30:00,112.48,112.52,112.48,112.52,314.0,ATR
2023-01-27 14:27:00,112.51,112.515,112.46,112.47,1240.0,ATR
2023-01-27 14:19:00,112.52,112.52,112.505,112.505,376.0,ATR
2023-01-27 14:18:00,112.45,112.45,112.45,112.45,208.0,ATR
2023-01-27 14:17:00,112.45,112.45,112.45,112.45,111.0,ATR
2023-01-27 14:16:00,112.45,112.45,112.45,112.45,106.0,ATR
2023-01-27 14:15:00,112.46,112.46,112.46,112.46,339.0,ATR
2023-01-27 14:12:00,112.44,112.44,112.44,112.44,117.0,ATR
2023-01-27 14:10:00,112.415,112.415,112.41,112.415,801.0,ATR
2023-01-27 14:09:00,112.31,112.31,112.3,112.31,2092.0,ATR
2023-01-27 14:08:00,112.28,112.3,112.28,112.3,1340.0,ATR
2023-01-27 14:07:00,112.28,112.28,112.28,112.28,336.0,ATR
2023-01-27 14:03:00,112.24,112.25,112.23,112.25,610.0,ATR
2023-01-27 14:02:00,112.29,112.3,112.275,112.275,1509.0,ATR
2023-01-27 14:01:00,112.245,112.245,112.245,112.245,143.0,ATR
2023-01-27 14:00:00,112.24,112.24,112.23,112.23,599.0,ATR
2023-01-27 13:59:00,112.29,112.29,112.29,112.29,239.0,ATR
2023-01-27 13:58:00,112.255,112.255,112.255,112.255,116.0,ATR
2023-01-27 13:57:00,112.27,112.27,112.25,112.25,469.0,ATR
2023-01-27 13:56:00,112.215,112.215,112.215,112.215,109.0,ATR
2023-01-27 13:55:00,112.215,112.215,112.215,112.215,506.0,ATR
2023-01-27 13:52:00,112.23,112.23,112.23,112.23,330.0,ATR
2023-01-27 13:49:00,112.235,112.235,112.235,112.235,200.0,ATR
2023-01-27 13:47:00,112.22,112.245,112.21,112.245,1009.0,ATR
2023-01-27 13:46:00,112.25,112.25,112.25,112.25,203.0,ATR
2023-01-27 13:45:00,112.31,112.31,112.265,112.265,1175.0,ATR
2023-01-27 13:44:00,112.14,112.25,112.14,112.25,3003.0,ATR
2023-01-27 13:43:00,112.17,112.17,112.17,112.17,110.0,ATR
2023-01-27 13:42:00,112.17,112.17,112.14,112.165,1907.0,ATR
2023-01-27 13:41:00,112.24,112.24,112.24,112.24,388.0,ATR
2023-01-27 13:39:00,112.35,112.35,112.27,112.27,2083.0,ATR
2023-01-27 13:38:00,112.39,112.4,112.35,112.355,1070.0,ATR
2023-01-27 13:31:00,112.29,112.31,112.28,112.31,1540.0,ATR
2023-01-27 13:30:00,112.31,112.31,112.31,112.31,865.0,ATR
2023-01-27 13:28:00,112.34,112.35,112.34,112.34,778.0,ATR
2023-01-27 13:22:00,112.34,112.34,112.34,112.34,513.0,ATR
2023-01-27 13:19:00,112.31,112.38,112.31,112.31,824.0,ATR
2023-01-27 13:17:00,112.3,112.4,112.3,112.4,1372.0,ATR
2023-01-27 13:14:00,112.3,112.3,112.3,112.3,290.0,ATR
2023-01-27 13:13:00,112.2,112.2,112.2,112.2,290.0,ATR
2023-01-27 13:12:00,112.3831,112.3831,112.305,112.305,422.0,ATR
2023-01-27 13:09:00,112.32,112.32,112.32,112.32,244.0,ATR
2023-01-27 13:08:00,112.29,112.31,112.29,112.31,1018.0,ATR
2023-01-27 13:06:00,112.215,112.215,112.215,112.215,415.0,ATR
2023-01-27 13:05:00,112.22,112.22,112.215,112.215,213.0,ATR
2023-01-27 13:03:00,112.305,112.305,112.305,112.305,461.0,ATR
2023-01-27 13:02:00,112.31,112.35,112.3,112.35,1070.0,ATR
2023-01-27 13:01:00,112.36,112.36,112.36,112.36,397.0,ATR
2023-01-27 12:55:00,112.42,112.42,112.42,112.42,549.0,ATR
2023-01-27 12:54:00,112.495,112.51,112.495,112.51,1102.0,ATR
2023-01-27 12:53:00,112.37,112.45,112.37,112.45,3678.0,ATR
2023-01-27 12:52:00,112.37,112.42,112.37,112.4,613.0,ATR
2023-01-27 12:49:00,112.345,112.345,112.345,112.345,211.0,ATR
2023-01-27 12:47:00,112.225,112.3,112.225,112.25,2298.0,ATR
2023-01-27 12:46:00,112.225,112.225,112.225,112.225,723.0,ATR
2023-01-27 12:45:00,112.27,112.27,112.27,112.27,676.0,ATR
2023-01-27 12:43:00,112.18,112.18,112.18,112.18,125.0,ATR
2023-01-27 12:41:00,112.245,112.26,112.245,112.26,535.0,ATR
2023-01-27 12:40:00,112.24,112.25,112.21,112.24,2224.0,ATR
2023-01-27 12:39:00,112.29,112.29,112.29,112.29,369.0,ATR
2023-01-27 12:38:00,112.2,112.24,112.19,112.19,437.0,ATR
2023-01-27 12:37:00,112.225,112.225,112.225,112.225,123.0,ATR
2023-01-27 12:35:00,112.29,112.32,112.29,112.32,716.0,ATR
2023-01-27 12:33:00,112.25,112.25,112.25,112.25,200.0,ATR
2023-01-27 12:28:00,112.25,112.25,112.21,112.245,888.0,ATR
2023-01-27 12:26:00,112.3,112.3,112.28,112.28,650.0,ATR
2023-01-27 12:24:00,112.18,112.31,112.18,112.31,2103.0,ATR
2023-01-27 12:23:00,112.32,112.32,112.1,112.1,3351.0,ATR
2023-01-27 12:16:00,112.375,112.45,112.375,112.385,670.0,ATR
2023-01-27 12:13:00,112.34,112.34,112.34,112.34,253.0,ATR
2023-01-27 12:12:00,112.28,112.325,112.27,112.325,478.0,ATR
2023-01-27 12:11:00,112.24,112.24,112.24,112.24,118.0,ATR
2023-01-27 12:10:00,112.23,112.235,112.23,112.235,969.0,ATR
2023-01-27 12:09:00,112.255,112.255,112.255,112.255,206.0,ATR
2023-01-27 12:08:00,112.245,112.25,112.21,112.25,2413.0,ATR
2023-01-27 12:07:00,112.21,112.21,112.21,112.21,200.0,ATR
2023-01-27 12:05:00,112.195,112.195,112.195,112.195,134.0,ATR
2023-01-27 12:04:00,112.25,112.25,112.24,112.25,1304.0,ATR
2023-01-27 11:57:00,112.19,112.33,112.19,112.265,5061.0,ATR
2023-01-27 11:53:00,112.095,112.095,112.095,112.095,201.0,ATR
2023-01-27 11:52:00,112.13,112.13,112.085,112.085,233.0,ATR
2023-01-27 11:51:00,112.085,112.085,112.085,112.085,199.0,ATR
2023-01-27 11:48:00,112.19,112.19,112.19,112.19,495.0,ATR
2023-01-27 11:45:00,112.19,112.19,112.19,112.19,182.0,ATR
2023-01-27 11:43:00,112.2,112.2,112.14,112.14,278.0,ATR
2023-01-27 11:38:00,112.07,112.11,112.07,112.11,480.0,ATR
2023-01-27 11:36:00,111.95,111.97,111.95,111.97,424.0,ATR
2023-01-27 11:33:00,112.01,112.01,112.01,112.01,200.0,ATR
2023-01-27 11:32:00,112.0,112.0,112.0,112.0,214.0,ATR
2023-01-27 11:30:00,111.95,111.95,111.9275,111.9275,319.0,ATR
2023-01-27 11:27:00,111.97,111.99,111.97,111.99,363.0,ATR
2023-01-27 11:26:00,111.855,111.91,111.855,111.91,324.0,ATR
2023-01-27 11:24:00,112.04,112.04,112.03,112.04,1039.0,ATR
2023-01-27 11:20:00,112.07,112.1,112.03,112.1,2449.0,ATR
2023-01-27 11:19:00,112.01,112.01,112.01,112.01,181.0,ATR
2023-01-27 11:13:00,112.0,112.0,112.0,112.0,265.0,ATR
2023-01-27 11:11:00,111.97,111.97,111.97,111.97,196.0,ATR
2023-01-27 11:09:00,112.05,112.05,111.99,112.035,468.0,ATR
2023-01-27 11:06:00,112.09,112.09,112.09,112.09,632.0,ATR
2023-01-27 11:05:00,111.94,111.94,111.94,111.94,521.0,ATR
2023-01-27 11:04:00,112.01,112.01,112.01,112.01,315.0,ATR
2023-01-27 11:03:00,111.95,111.95,111.93,111.93,484.0,ATR
2023-01-27 10:51:00,112.09,112.09,112.09,112.09,151.0,ATR
2023-01-27 10:50:00,112.11,112.14,112.105,112.105,1177.0,ATR
2023-01-27 10:48:00,112.21,112.21,112.21,112.21,173.0,ATR
2023-01-27 10:45:00,112.25,112.25,112.25,112.25,172.0,ATR
2023-01-27 10:44:00,112.27,112.27,112.25,112.25,455.0,ATR
2023-01-27 10:43:00,112.31,112.31,112.31,112.31,302.0,ATR
2023-01-27 10:41:00,112.27,112.27,112.27,112.27,250.0,ATR
2023-01-27 10:40:00,112.32,112.32,112.28,112.31,526.0,ATR
2023-01-27 10:35:00,112.32,112.32,112.32,112.32,374.0,ATR
2023-01-27 10:32:00,112.22,112.22,112.22,112.22,1146.0,ATR
2023-01-27 10:31:00,112.29,112.34,112.29,112.34,906.0,ATR
2023-01-27 10:29:00,112.24,112.24,112.18,112.18,419.0,ATR
2023-01-27 10:26:00,112.31,112.31,112.3,112.3,365.0,ATR
2023-01-27 10:25:00,112.3,112.345,112.3,112.33,897.0,ATR
2023-01-27 10:24:00,112.33,112.36,112.29,112.29,1422.0,ATR
2023-01-27 10:23:00,112.43,112.43,112.43,112.43,241.0,ATR
2023-01-27 10:22:00,112.37,112.37,112.35,112.36,864.0,ATR
2023-01-27 10:18:00,112.41,112.455,112.35,112.455,2063.0,ATR
2023-01-27 10:17:00,112.39,112.46,112.35,112.36,4489.0,ATR
2023-01-27 10:16:00,112.52,112.52,112.47,112.47,595.0,ATR
2023-01-27 10:15:00,112.595,112.595,112.595,112.595,350.0,ATR
2023-01-27 10:14:00,112.66,112.66,112.65,112.65,1756.0,ATR
2023-01-27 10:13:00,112.66,112.66,112.66,112.66,126.0,ATR
2023-01-27 10:07:00,112.775,112.78,112.775,112.78,212.0,ATR
2023-01-27 10:05:00,112.745,112.745,112.69,112.69,204.0,ATR
2023-01-27 10:04:00,112.735,112.735,112.735,112.735,104.0,ATR
2023-01-27 10:03:00,112.72,112.73,112.72,112.73,202.0,ATR
2023-01-27 10:02:00,112.715,112.72,112.715,112.72,389.0,ATR
2023-01-27 09:59:00,112.435,112.435,112.435,112.435,292.0,ATR
2023-01-27 09:58:00,112.58,112.58,112.54,112.54,452.0,ATR
2023-01-27 09:54:00,112.6493,112.6493,112.6493,112.6493,348.0,ATR
2023-01-27 09:52:00,112.61,112.72,112.59,112.63,994.0,ATR
2023-01-27 09:49:00,112.63,112.63,112.57,112.57,227.0,ATR
2023-01-27 09:47:00,112.485,112.485,112.485,112.485,182.0,ATR
2023-01-27 09:46:00,112.625,112.625,112.625,112.625,131.0,ATR
2023-01-27 09:45:00,112.3181,112.455,112.3181,112.455,330.0,ATR
2023-01-27 09:42:00,112.4908,112.4908,112.4908,112.4908,213.0,ATR
2023-01-27 09:39:00,112.29,112.29,112.29,112.29,482.0,ATR
2023-01-27 09:34:00,112.7954,112.7954,112.7954,112.7954,191.0,ATR
2023-01-27 09:31:00,112.51,112.51,112.51,112.51,488.0,ATR
2023-01-26 16:01:00,112.79,112.79,112.79,112.79,3107.0,ATR
2023-01-26 16:00:00,112.81,112.89,112.78,112.78,8059.0,ATR
2023-01-26 15:59:00,112.75,112.79,112.75,112.775,4001.0,ATR
2023-01-26 15:58:00,112.755,112.845,112.75,112.75,4930.0,ATR
2023-01-26 15:57:00,112.73,112.78,112.695,112.78,1426.0,ATR
2023-01-26 15:56:00,112.595,112.73,112.595,112.73,2877.0,ATR
2023-01-26 15:55:00,112.66,112.66,112.6,112.6,2219.0,ATR
2023-01-26 15:54:00,112.6,112.645,112.6,112.61,1966.0,ATR
2023-01-26 15:53:00,112.605,112.66,112.6,112.6,1931.0,ATR
2023-01-26 15:52:00,112.66,112.66,112.605,112.605,504.0,ATR
2023-01-26 15:51:00,112.49,112.63,112.49,112.63,1526.0,ATR
2023-01-26 15:50:00,112.495,112.495,112.495,112.495,319.0,ATR
2023-01-26 15:49:00,112.495,112.495,112.495,112.495,107.0,ATR
2023-01-26 15:48:00,112.43,112.495,112.43,112.495,1270.0,ATR
2023-01-26 15:47:00,112.405,112.43,112.405,112.42,1478.0,ATR
2023-01-26 15:46:00,112.39,112.4,112.38,112.4,890.0,ATR
2023-01-26 15:45:00,112.355,112.355,112.32,112.34,1145.0,ATR
2023-01-26 15:44:00,112.435,112.435,112.355,112.355,3821.0,ATR
2023-01-26 15:43:00,112.455,112.455,112.455,112.455,269.0,ATR
2023-01-26 15:42:00,112.4775,112.4775,112.4775,112.4775,366.0,ATR
2023-01-26 15:41:00,112.38,112.47,112.38,112.47,2415.0,ATR
2023-01-26 15:40:00,112.395,112.395,112.38,112.38,1364.0,ATR
2023-01-26 15:39:00,112.375,112.375,112.355,112.355,465.0,ATR
2023-01-26 15:38:00,112.34,112.34,112.34,112.34,137.0,ATR
2023-01-26 15:37:00,112.4,112.4,112.4,112.4,168.0,ATR
2023-01-26 15:36:00,112.385,112.385,112.345,112.345,218.0,ATR
2023-01-26 15:35:00,112.34,112.37,112.34,112.37,710.0,ATR
2023-01-26 15:34:00,112.335,112.335,112.33,112.33,325.0,ATR
2023-01-26 15:33:00,112.27,112.32,112.27,112.32,925.0,ATR
2023-01-26 15:32:00,112.33,112.33,112.28,112.28,1417.0,ATR
2023-01-26 15:31:00,112.325,112.36,112.325,112.33,545.0,ATR
2023-01-26 15:30:00,112.33,112.33,112.33,112.33,182.0,ATR
2023-01-26 15:28:00,112.35,112.35,112.275,112.35,353.0,ATR
2023-01-26 15:25:00,112.36,112.36,112.36,112.36,308.0,ATR
2023-01-26 15:24:00,112.4,112.4,112.36,112.4,522.0,ATR
2023-01-26 15:23:00,112.481,112.481,112.45,112.45,1979.0,ATR
2023-01-26 15:22:00,112.5375,112.5375,112.5375,112.5375,302.0,ATR
2023-01-26 15:21:00,112.515,112.515,112.505,112.505,235.0,ATR
2023-01-26 15:20:00,112.505,112.505,112.505,112.505,113.0,ATR
2023-01-26 15:19:00,112.505,112.505,112.505,112.505,126.0,ATR
2023-01-26 15:18:00,112.51,112.51,112.51,112.51,119.0,ATR
2023-01-26 15:17:00,112.51,112.51,112.51,112.51,157.0,ATR
2023-01-26 15:16:00,112.54,112.54,112.54,112.54,117.0,ATR
2023-01-26 15:15:00,112.53,112.53,112.53,112.53,259.0,ATR
2023-01-26 15:13:00,112.5,112.51,112.5,112.5,815.0,ATR
2023-01-26 15:12:00,112.37,112.41,112.37,112.41,391.0,ATR
2023-01-26 15:11:00,112.32,112.345,112.32,112.345,258.0,ATR
2023-01-26 15:09:00,112.32,112.32,112.3,112.3,467.0,ATR
2023-01-26 15:07:00,112.44,112.44,112.42,112.42,2069.0,ATR
2023-01-26 15:05:00,112.4925,112.4925,112.4925,112.4925,454.0,ATR
2023-01-26 15:04:00,112.47,112.48,112.47,112.48,1032.0,ATR
2023-01-26 15:03:00,112.49,112.49,112.43,112.455,919.0,ATR
2023-01-26 15:01:00,112.43,112.43,112.43,112.43,113.0,ATR
2023-01-26 15:00:00,112.5,112.5,112.5,112.5,194.0,ATR
2023-01-26 14:59:00,112.43,112.43,112.36,112.43,373.0,ATR
2023-01-26 14:58:00,112.43,112.43,112.43,112.43,108.0,ATR
2023-01-26 14:55:00,112.42,112.42,112.42,112.42,449.0,ATR
2023-01-26 14:51:00,112.38,112.38,112.38,112.38,1659.0,ATR
2023-01-26 14:47:00,112.47,112.47,112.47,112.47,445.0,ATR
2023-01-26 14:46:00,112.44,112.44,112.44,112.44,419.0,ATR
2023-01-26 14:43:00,112.445,112.445,112.445,112.445,168.0,ATR
2023-01-26 14:42:00,112.4675,112.4675,112.425,112.425,366.0,ATR
2023-01-26 14:41:00,112.425,112.51,112.425,112.425,326.0,ATR
2023-01-26 14:39:00,112.475,112.475,112.475,112.475,202.0,ATR
2023-01-26 14:37:00,112.29,112.29,112.29,112.29,326.0,ATR
2023-01-26 14:35:00,112.23,112.23,112.215,112.22,601.0,ATR
2023-01-26 14:33:00,112.14,112.145,112.14,112.145,331.0,ATR
2023-01-26 14:31:00,111.9901,112.095,111.9901,112.095,1234.0,ATR
2023-01-26 14:28:00,111.9908,111.9908,111.9908,111.9908,141.0,ATR
2023-01-26 14:27:00,112.005,112.005,111.96,111.96,677.0,ATR
2023-01-26 14:26:00,112.1,112.1,112.09,112.09,643.0,ATR
2023-01-26 14:25:00,112.12,112.13,112.12,112.13,320.0,ATR
2023-01-26 14:23:00,112.13,112.14,112.11,112.13,2698.0,ATR
2023-01-26 14:20:00,112.185,112.185,112.185,112.185,102.0,ATR
2023-01-26 14:18:00,112.19,112.19,112.19,112.19,105.0,ATR
2023-01-26 14:17:00,112.19,112.19,112.13,112.13,215.0,ATR
2023-01-26 14:14:00,112.28,112.28,112.28,112.28,804.0,ATR
2023-01-26 14:13:00,112.32,112.32,112.32,112.32,101.0,ATR
2023-01-26 14:12:00,112.285,112.31,112.285,112.3,967.0,ATR
2023-01-26 14:11:00,112.26,112.26,112.26,112.26,188.0,ATR
2023-01-26 14:08:00,112.31,112.31,112.25,112.25,1112.0,ATR
2023-01-26 14:07:00,112.34,112.34,112.34,112.34,132.0,ATR
2023-01-26 14:05:00,112.345,112.345,112.345,112.345,112.0,ATR
2023-01-26 14:04:00,112.36,112.37,112.34,112.34,889.0,ATR
2023-01-26 14:02:00,112.32,112.37,112.32,112.36,992.0,ATR
2023-01-26 14:01:00,112.39,112.4,112.36,112.36,1283.0,ATR
2023-01-26 13:57:00,112.435,112.435,112.43,112.43,287.0,ATR
2023-01-26 13:56:00,112.425,112.425,112.425,112.425,412.0,ATR
2023-01-26 13:54:00,112.41,112.41,112.41,112.41,1134.0,ATR
2023-01-26 13:52:00,112.41,112.41,112.41,112.41,112.0,ATR
2023-01-26 13:48:00,112.505,112.505,112.505,112.505,106.0,ATR
2023-01-26 13:47:00,112.505,112.505,112.505,112.505,253.0,ATR
2023-01-26 13:46:00,112.49,112.505,112.49,112.505,214.0,ATR
2023-01-26 13:41:00,112.46,112.46,112.46,112.46,200.0,ATR
2023-01-26 13:40:00,112.38,112.42,112.38,112.42,1008.0,ATR
2023-01-26 13:38:00,112.305,112.305,112.305,112.305,167.0,ATR
2023-01-26 13:31:00,112.215,112.31,112.215,112.31,837.0,ATR
2023-01-26 13:29:00,112.23,112.23,112.225,112.225,400.0,ATR
2023-01-26 13:28:00,112.23,112.245,112.23,112.245,593.0,ATR
2023-01-26 13:27:00,112.22,112.22,112.22,112.22,978.0,ATR
2023-01-26 13:24:00,112.125,112.125,112.125,112.125,103.0,ATR
2023-01-26 13:23:00,112.215,112.215,112.215,112.215,101.0,ATR
2023-01-26 13:19:00,112.125,112.125,112.125,112.125,123.0,ATR
2023-01-26 13:16:00,112.105,112.205,112.105,112.205,223.0,ATR
2023-01-26 13:10:00,112.125,112.125,112.125,112.125,147.0,ATR
2023-01-26 13:04:00,112.225,112.225,112.225,112.225,126.0,ATR
2023-01-26 13:02:00,112.22,112.22,112.22,112.22,132.0,ATR
2023-01-26 13:00:00,112.19,112.19,112.15,112.165,589.0,ATR
2023-01-26 12:59:00,112.19,112.19,112.19,112.19,145.0,ATR
2023-01-26 12:53:00,112.25,112.25,112.25,112.25,103.0,ATR
2023-01-26 12:52:00,112.235,112.235,112.19,112.19,210.0,ATR
2023-01-26 12:51:00,112.05,112.25,112.05,112.225,697.0,ATR
2023-01-26 12:49:00,112.13,112.13,112.13,112.13,222.0,ATR
2023-01-26 12:47:00,112.12,112.12,112.12,112.12,610.0,ATR
2023-01-26 12:46:00,112.21,112.21,112.21,112.21,123.0,ATR
2023-01-26 12:45:00,112.26,112.26,112.26,112.26,244.0,ATR
2023-01-26 12:41:00,112.255,112.255,112.255,112.255,141.0,ATR
2023-01-26 12:40:00,112.245,112.245,112.245,112.245,823.0,ATR
2023-01-26 12:38:00,112.18,112.18,112.18,112.18,103.0,ATR
2023-01-26 12:37:00,112.245,112.245,112.245,112.245,413.0,ATR
2023-01-26 12:34:00,112.23,112.255,112.23,112.255,635.0,ATR
2023-01-26 12:33:00,112.14,112.14,112.14,112.14,125.0,ATR
2023-01-26 12:31:00,112.1919,112.1919,112.19,112.19,202.0,ATR
2023-01-26 12:30:00,112.18,112.18,112.18,112.18,112.0,ATR
2023-01-26 12:29:00,112.165,112.165,112.165,112.165,100.0,ATR
2023-01-26 12:27:00,112.19,112.19,112.09,112.09,318.0,ATR
2023-01-26 12:25:00,112.26,112.26,112.225,112.225,455.0,ATR
2023-01-26 12:21:00,112.24,112.24,112.24,112.24,422.0,ATR
2023-01-26 12:13:00,112.33,112.33,112.33,112.33,102.0,ATR
2023-01-26 12:12:00,112.31,112.31,112.31,112.31,244.0,ATR
2023-01-26 12:11:00,112.285,112.33,112.285,112.33,528.0,ATR
2023-01-26 12:02:00,112.18,112.18,112.18,112.18,663.0,ATR
2023-01-26 12:01:00,112.135,112.135,112.135,112.135,111.0,ATR
2023-01-26 12:00:00,112.09,112.09,112.09,112.09,106.0,ATR
2023-01-26 11:58:00,112.0489,112.0489,112.0489,112.0489,646.0,ATR
2023-01-26 11:51:00,112.01,112.01,112.01,112.01,132.0,ATR
2023-01-26 11:43:00,112.08,112.12,112.08,112.12,665.0,ATR
2023-01-26 11:42:00,112.0367,112.0367,111.99,111.99,356.0,ATR
2023-01-26 11:40:00,111.97,111.97,111.97,111.97,635.0,ATR
2023-01-26 11:37:00,111.96,111.96,111.96,111.96,174.0,ATR
2023-01-26 11:31:00,112.005,112.005,112.005,112.005,345.0,ATR
2023-01-26 11:29:00,112.03,112.09,111.99,112.025,878.0,ATR
2023-01-26 11:28:00,111.88,111.88,111.88,111.88,133.0,ATR
2023-01-26 11:26:00,111.82,111.82,111.82,111.82,145.0,ATR
2023-01-26 11:24:00,111.93,112.05,111.93,112.01,841.0,ATR
2023-01-26 11:22:00,112.09,112.09,112.055,112.055,857.0,ATR
2023-01-26 11:17:00,112.18,112.18,112.18,112.18,226.0,ATR
2023-01-26 11:16:00,112.175,112.175,112.175,112.175,106.0,ATR
2023-01-26 11:15:00,112.175,112.175,112.175,112.175,103.0,ATR
2023-01-26 11:11:00,112.11,112.19,112.11,112.185,849.0,ATR
2023-01-26 11:07:00,112.105,112.105,112.095,112.095,378.0,ATR
2023-01-26 11:06:00,112.13,112.13,112.13,112.13,552.0,ATR
2023-01-26 11:05:00,112.03,112.03,112.03,112.03,248.0,ATR
2023-01-26 11:03:00,112.0,112.0,111.875,111.875,238.0,ATR
2023-01-26 10:59:00,111.91,111.91,111.91,111.91,142.0,ATR
2023-01-26 10:55:00,112.015,112.0215,112.015,112.0215,892.0,ATR
2023-01-26 10:54:00,112.14,112.14,111.96,111.96,753.0,ATR
2023-01-26 10:50:00,112.235,112.235,112.115,112.115,303.0,ATR
2023-01-26 10:46:00,112.1369,112.1369,112.1369,112.1369,249.0,ATR
2023-01-26 10:41:00,112.26,112.26,112.26,112.26,166.0,ATR
2023-01-26 10:40:00,112.31,112.31,112.25,112.25,501.0,ATR
2023-01-26 10:39:00,112.18,112.18,112.18,112.18,296.0,ATR
2023-01-26 10:36:00,112.35,112.35,112.35,112.35,472.0,ATR
2023-01-26 10:35:00,112.68,112.68,112.68,112.68,159.0,ATR
2023-01-26 10:34:00,112.24,112.445,112.165,112.445,1355.0,ATR
2023-01-26 10:33:00,112.14,112.15,112.14,112.15,225.0,ATR
2023-01-26 10:29:00,112.12,112.12,112.12,112.12,750.0,ATR
2023-01-26 10:28:00,112.14,112.14,112.14,112.14,117.0,ATR
2023-01-26 10:14:00,112.025,112.025,112.025,112.025,430.0,ATR
2023-01-26 10:11:00,112.26,112.26,112.01,112.01,208.0,ATR
2023-01-26 10:07:00,112.04,112.04,112.04,112.04,137.0,ATR
2023-01-26 10:06:00,112.01,112.01,112.01,112.01,121.0,ATR
2023-01-26 10:02:00,112.26,112.26,112.24,112.24,465.0,ATR
2023-01-26 09:56:00,112.49,112.49,112.38,112.38,583.0,ATR
2023-01-26 09:55:00,112.51,112.51,112.51,112.51,327.0,ATR
2023-01-26 09:54:00,112.47,112.47,112.33,112.33,678.0,ATR
2023-01-26 09:50:00,112.65,112.65,112.065,112.065,945.0,ATR
2023-01-26 09:48:00,112.065,112.065,112.065,112.065,172.0,ATR
2023-01-26 09:44:00,112.395,112.395,112.395,112.395,386.0,ATR
2023-01-26 09:41:00,112.61,112.61,112.61,112.61,603.0,ATR
2023-01-26 09:40:00,112.69,112.69,112.69,112.69,157.0,ATR
2023-01-26 09:38:00,112.64,112.64,112.64,112.64,103.0,ATR
2023-01-26 09:36:00,112.505,112.505,112.505,112.505,107.0,ATR
2023-01-26 09:31:00,112.51,112.51,112.51,112.51,481.0,ATR
2023-01-25 16:01:00,112.07,112.07,112.07,112.07,1904.0,ATR
2023-01-25 16:00:00,112.09,112.18,112.06,112.13,10512.0,ATR
2023-01-25 15:59:00,112.15,112.15,112.07,112.09,2982.0,ATR
2023-01-25 15:58:00,112.1,112.17,112.06,112.17,4862.0,ATR
2023-01-25 15:57:00,112.125,112.16,112.125,112.13,2670.0,ATR
2023-01-25 15:56:00,112.12,112.155,112.095,112.12,1961.0,ATR
2023-01-25 15:55:00,112.02,112.15,111.98,112.06,2953.0,ATR
2023-01-25 15:54:00,112.07,112.07,111.98,111.98,1403.0,ATR
2023-01-25 15:53:00,112.02,112.07,112.01,112.07,3210.0,ATR
2023-01-25 15:52:00,111.99,112.07,111.99,112.07,1520.0,ATR
2023-01-25 15:51:00,112.185,112.185,112.07,112.07,2757.0,ATR
2023-01-25 15:50:00,112.19,112.2,112.17,112.2,1012.0,ATR
2023-01-25 15:49:00,112.185,112.19,112.11,112.19,2259.0,ATR
2023-01-25 15:48:00,112.18,112.185,112.18,112.185,617.0,ATR
2023-01-25 15:47:00,112.245,112.245,112.2,112.23,1326.0,ATR
2023-01-25 15:46:00,112.25,112.25,112.245,112.245,579.0,ATR
2023-01-25 15:45:00,112.25,112.265,112.24,112.25,1411.0,ATR
2023-01-25 15:44:00,112.31,112.32,112.27,112.27,1187.0,ATR
2023-01-25 15:43:00,112.31,112.31,112.31,112.31,131.0,ATR
2023-01-25 15:42:00,112.285,112.335,112.285,112.32,776.0,ATR
2023-01-25 15:41:00,112.285,112.285,112.285,112.285,1476.0,ATR
2023-01-25 15:40:00,112.285,112.31,112.285,112.31,564.0,ATR
2023-01-25 15:39:00,112.265,112.285,112.25,112.285,1468.0,ATR
2023-01-25 15:38:00,112.19,112.29,112.15,112.275,3111.0,ATR
2023-01-25 15:37:00,112.19,112.2,112.19,112.19,842.0,ATR
2023-01-25 15:36:00,112.26,112.26,112.26,112.26,397.0,ATR
2023-01-25 15:34:00,112.35,112.35,112.35,112.35,210.0,ATR
2023-01-25 15:33:00,112.325,112.35,112.325,112.35,632.0,ATR
2023-01-25 15:32:00,112.335,112.36,112.335,112.36,494.0,ATR
2023-01-25 15:31:00,112.34,112.36,112.32,112.32,1272.0,ATR
2023-01-25 15:29:00,112.32,112.32,112.32,112.32,153.0,ATR
2023-01-25 15:27:00,112.255,112.255,112.255,112.255,383.0,ATR
2023-01-25 15:25:00,112.25,112.25,112.25,112.25,429.0,ATR
2023-01-25 15:24:00,112.135,112.18,112.135,112.18,304.0,ATR
2023-01-25 15:23:00,112.035,112.1,112.035,112.1,977.0,ATR
2023-01-25 15:21:00,112.04,112.04,112.04,112.04,154.0,ATR
2023-01-25 15:19:00,112.04,112.09,112.04,112.09,332.0,ATR
2023-01-25 15:17:00,112.02,112.02,112.02,112.02,152.0,ATR
2023-01-25 15:16:00,112.12,112.12,112.02,112.02,867.0,ATR
2023-01-25 15:15:00,112.14,112.14,112.13,112.13,506.0,ATR
2023-01-25 15:12:00,112.25,112.25,112.2,112.2,1440.0,ATR
2023-01-25 15:11:00,112.28,112.28,112.28,112.28,175.0,ATR
2023-01-25 15:09:00,112.2,112.265,112.2,112.265,713.0,ATR
2023-01-25 15:08:00,112.2,112.2,112.2,112.2,191.0,ATR
2023-01-25 15:05:00,112.225,112.27,112.225,112.225,480.0,ATR
2023-01-25 15:04:00,112.23,112.23,112.23,112.23,176.0,ATR
2023-01-25 15:02:00,112.145,112.2,112.145,112.2,703.0,ATR
2023-01-25 15:01:00,112.135,112.135,112.135,112.135,294.0,ATR
2023-01-25 14:59:00,112.13,112.13,112.13,112.13,118.0,ATR
2023-01-25 14:57:00,112.115,112.115,112.115,112.115,231.0,ATR
2023-01-25 14:56:00,112.095,112.095,112.095,112.095,249.0,ATR
2023-01-25 14:52:00,112.08,112.08,112.08,112.08,309.0,ATR
2023-01-25 14:49:00,112.07,112.07,112.07,112.07,200.0,ATR
2023-01-25 14:48:00,112.07,112.07,112.07,112.07,114.0,ATR
2023-01-25 14:47:00,112.07,112.07,112.07,112.07,342.0,ATR
2023-01-25 14:46:00,112.04,112.06,112.04,112.06,1186.0,ATR
2023-01-25 14:43:00,112.12,112.12,112.12,112.12,133.0,ATR
2023-01-25 14:42:00,112.12,112.12,112.12,112.12,127.0,ATR
2023-01-25 14:40:00,112.115,112.115,112.115,112.115,297.0,ATR
2023-01-25 14:35:00,112.12,112.12,112.12,112.12,367.0,ATR
2023-01-25 14:30:00,112.19,112.22,112.19,112.22,873.0,ATR
2023-01-25 14:27:00,112.29,112.29,112.25,112.25,1076.0,ATR
2023-01-25 14:25:00,112.42,112.42,112.42,112.42,200.0,ATR
2023-01-25 14:24:00,112.49,112.51,112.38,112.42,922.0,ATR
2023-01-25 14:23:00,112.21,112.23,112.21,112.23,334.0,ATR
2023-01-25 14:22:00,112.23,112.23,112.155,112.155,221.0,ATR
2023-01-25 14:20:00,112.135,112.135,112.135,112.135,107.0,ATR
2023-01-25 14:18:00,112.14,112.24,112.14,112.14,509.0,ATR
2023-01-25 14:13:00,111.98,112.005,111.91,112.005,761.0,ATR
2023-01-25 14:12:00,111.83,111.83,111.83,111.83,547.0,ATR
2023-01-25 14:10:00,111.685,111.685,111.685,111.685,185.0,ATR
2023-01-25 14:09:00,111.67,111.67,111.665,111.665,275.0,ATR
2023-01-25 14:08:00,111.665,111.665,111.665,111.665,308.0,ATR
2023-01-25 14:06:00,111.665,111.665,111.665,111.665,136.0,ATR
2023-01-25 14:00:00,111.685,111.685,111.685,111.685,203.0,ATR
2023-01-25 13:56:00,111.645,111.645,111.645,111.645,132.0,ATR
2023-01-25 13:55:00,111.645,111.645,111.645,111.645,127.0,ATR
2023-01-25 13:53:00,111.71,111.71,111.71,111.71,500.0,ATR
2023-01-25 13:52:00,111.73,111.74,111.73,111.74,873.0,ATR
2023-01-25 13:49:00,111.655,111.655,111.655,111.655,193.0,ATR
2023-01-25 13:48:00,111.65,111.65,111.65,111.65,348.0,ATR
2023-01-25 13:47:00,111.595,111.595,111.595,111.595,514.0,ATR
2023-01-25 13:46:00,111.575,111.59,111.5635,111.59,735.0,ATR
2023-01-25 13:45:00,111.58,111.58,111.575,111.575,673.0,ATR
2023-01-25 13:44:00,111.665,111.665,111.665,111.665,220.0,ATR
2023-01-25 13:43:00,111.68,111.68,111.63,111.63,644.0,ATR
2023-01-25 13:38:00,111.693,111.693,111.693,111.693,152.0,ATR
2023-01-25 13:37:00,111.675,111.73,111.675,111.73,822.0,ATR
2023-01-25 13:36:00,111.715,111.715,111.715,111.715,430.0,ATR
2023-01-25 13:35:00,111.75,111.75,111.75,111.75,119.0,ATR
2023-01-25 13:34:00,111.77,111.81,111.74,111.74,1179.0,ATR
2023-01-25 13:32:00,111.82,111.82,111.82,111.82,416.0,ATR
2023-01-25 13:31:00,111.835,111.835,111.835,111.835,416.0,ATR
2023-01-25 13:28:00,111.795,111.795,111.795,111.795,334.0,ATR
2023-01-25 13:27:00,111.76,111.83,111.76,111.795,1000.0,ATR
2023-01-25 13:22:00,111.71,111.72,111.7,111.72,542.0,ATR
2023-01-25 13:21:00,111.7,111.75,111.66,111.7,4285.0,ATR
2023-01-25 13:18:00,111.66,111.66,111.66,111.66,133.0,ATR
2023-01-25 13:15:00,111.65,111.68,111.65,111.68,730.0,ATR
2023-01-25 13:14:00,111.585,111.585,111.585,111.585,212.0,ATR
2023-01-25 13:13:00,111.605,111.61,111.585,111.585,606.0,ATR
2023-01-25 13:12:00,111.56,111.64,111.56,111.64,627.0,ATR
2023-01-25 13:09:00,111.6,111.6,111.52,111.52,1269.0,ATR
2023-01-25 13:08:00,111.61,111.61,111.61,111.61,127.0,ATR
2023-01-25 13:07:00,111.61,111.61,111.61,111.61,301.0,ATR
2023-01-25 13:06:00,111.62,111.62,111.62,111.62,192.0,ATR
2023-01-25 13:03:00,111.64,111.7,111.58,111.58,2334.0,ATR
2023-01-25 12:59:00,111.64,111.64,111.64,111.64,137.0,ATR
2023-01-25 12:55:00,111.65,111.7,111.65,111.665,1236.0,ATR
2023-01-25 12:54:00,111.7,111.7,111.7,111.7,106.0,ATR
2023-01-25 12:53:00,111.7,111.7,111.7,111.7,146.0,ATR
2023-01-25 12:52:00,111.67,111.67,111.67,111.67,360.0,ATR
2023-01-25 12:51:00,111.67,111.67,111.58,111.58,465.0,ATR
2023-01-25 12:49:00,111.57,111.57,111.57,111.57,305.0,ATR
2023-01-25 12:46:00,111.57,111.67,111.56,111.56,647.0,ATR
2023-01-25 12:45:00,111.56,111.56,111.56,111.56,124.0,ATR
2023-01-25 12:42:00,111.535,111.6,111.535,111.6,667.0,ATR
2023-01-25 12:41:00,111.44,111.54,111.44,111.54,797.0,ATR
2023-01-25 12:40:00,111.47,111.47,111.47,111.47,102.0,ATR
2023-01-25 12:37:00,111.35,111.35,111.35,111.35,598.0,ATR
2023-01-25 12:36:00,111.295,111.295,111.22,111.27,3571.0,ATR
2023-01-25 12:31:00,111.285,111.285,111.285,111.285,800.0,ATR
2023-01-25 12:28:00,111.38,111.38,111.25,111.3,371.0,ATR
2023-01-25 12:21:00,111.31,111.3949,111.31,111.3949,928.0,ATR
2023-01-25 12:11:00,111.52,111.52,111.3,111.44,1233.0,ATR
2023-01-25 12:09:00,111.455,111.455,111.455,111.455,204.0,ATR
2023-01-25 12:05:00,111.38,111.38,111.38,111.38,108.0,ATR
2023-01-25 12:04:00,111.47,111.47,111.47,111.47,158.0,ATR
2023-01-25 11:52:00,111.07,111.16,111.07,111.16,412.0,ATR
2023-01-25 11:51:00,110.96,111.045,110.96,111.045,332.0,ATR
2023-01-25 11:50:00,110.9275,110.9275,110.9275,110.9275,116.0,ATR
2023-01-25 11:48:00,110.9,110.9,110.9,110.9,153.0,ATR
2023-01-25 11:46:00,110.885,110.885,110.885,110.885,634.0,ATR
2023-01-25 11:44:00,110.933,110.933,110.885,110.885,243.0,ATR
2023-01-25 11:41:00,110.99,110.99,110.99,110.99,110.0,ATR
2023-01-25 11:37:00,111.04,111.04,111.04,111.04,122.0,ATR
2023-01-25 11:36:00,110.97,110.97,110.97,110.97,102.0,ATR
2023-01-25 11:34:00,110.95,110.95,110.95,110.95,236.0,ATR
2023-01-25 11:32:00,110.96,110.96,110.96,110.96,100.0,ATR
2023-01-25 11:31:00,111.02,111.02,110.97,110.97,1018.0,ATR
2023-01-25 11:30:00,111.05,111.05,111.05,111.05,275.0,ATR
2023-01-25 11:28:00,110.99,110.99,110.99,110.99,323.0,ATR
2023-01-25 11:23:00,111.03,111.03,111.03,111.03,142.0,ATR
2023-01-25 11:22:00,110.91,110.915,110.85,110.915,354.0,ATR
2023-01-25 11:20:00,110.83,110.88,110.83,110.88,992.0,ATR
2023-01-25 11:17:00,110.77,110.77,110.77,110.77,214.0,ATR
2023-01-25 11:16:00,110.76,110.76,110.76,110.76,110.0,ATR
2023-01-25 11:13:00,110.75,110.75,110.75,110.75,167.0,ATR
2023-01-25 11:12:00,110.69,110.69,110.69,110.69,101.0,ATR
2023-01-25 11:11:00,110.685,110.685,110.685,110.685,165.0,ATR
2023-01-25 11:10:00,110.705,110.705,110.705,110.705,176.0,ATR
2023-01-25 11:09:00,110.81,110.81,110.81,110.81,357.0,ATR
2023-01-25 11:07:00,110.68,110.68,110.68,110.68,106.0,ATR
2023-01-25 11:04:00,110.754,110.754,110.754,110.754,260.0,ATR
2023-01-25 11:03:00,110.91,110.91,110.83,110.83,232.0,ATR
2023-01-25 11:01:00,110.83,110.83,110.83,110.83,167.0,ATR
2023-01-25 10:59:00,110.82,110.82,110.82,110.82,120.0,ATR
2023-01-25 10:58:00,110.73,110.73,110.73,110.73,295.0,ATR
2023-01-25 10:56:00,110.7,110.7,110.7,110.7,509.0,ATR
2023-01-25 10:52:00,110.575,110.575,110.488,110.488,322.0,ATR
2023-01-25 10:51:00,110.7,110.7,110.7,110.7,599.0,ATR
2023-01-25 10:48:00,110.846,110.846,110.846,110.846,123.0,ATR
2023-01-25 10:44:00,110.824,110.824,110.824,110.824,113.0,ATR
2023-01-25 10:40:00,110.78,110.78,110.78,110.78,231.0,ATR
2023-01-25 10:39:00,110.742,110.89,110.742,110.89,622.0,ATR
2023-01-25 10:36:00,110.9575,111.08,110.9575,111.08,821.0,ATR
2023-01-25 10:32:00,111.05,111.15,111.05,111.05,985.0,ATR
2023-01-25 10:31:00,110.94,110.94,110.86,110.86,383.0,ATR
2023-01-25 10:30:00,111.2,111.2,111.2,111.2,284.0,ATR
2023-01-25 10:28:00,111.18,111.18,111.12,111.12,713.0,ATR
2023-01-25 10:26:00,111.29,111.29,111.22,111.22,301.0,ATR
2023-01-25 10:25:00,111.32,111.32,111.32,111.32,171.0,ATR
2023-01-25 10:19:00,111.49,111.49,111.26,111.26,221.0,ATR
2023-01-25 10:17:00,111.41,111.41,111.41,111.41,283.0,ATR
2023-01-25 10:13:00,111.56,111.56,111.39,111.39,1538.0,ATR
2023-01-25 10:06:00,111.73,111.78,111.67,111.68,4171.0,ATR
2023-01-25 10:05:00,111.41,111.6,111.41,111.54,832.0,ATR
2023-01-25 10:01:00,111.34,111.34,111.32,111.32,931.0,ATR
2023-01-25 10:00:00,111.4136,111.4136,111.4136,111.4136,636.0,ATR
2023-01-25 09:58:00,111.615,111.615,111.4,111.4,1365.0,ATR
2023-01-25 09:57:00,111.63,111.65,111.45,111.5,1655.0,ATR
2023-01-25 09:56:00,111.54,111.54,111.54,111.54,105.0,ATR
2023-01-25 09:54:00,111.38,111.535,111.38,111.535,639.0,ATR
2023-01-25 09:53:00,111.525,111.525,111.525,111.525,112.0,ATR
2023-01-25 09:52:00,111.525,111.525,111.525,111.525,306.0,ATR
2023-01-25 09:51:00,111.43,111.43,111.43,111.43,187.0,ATR
2023-01-25 09:50:00,111.57,111.57,111.44,111.44,476.0,ATR
2023-01-25 09:48:00,111.57,111.75,111.57,111.57,304.0,ATR
2023-01-25 09:47:00,111.57,111.57,111.57,111.57,693.0,ATR
2023-01-25 09:45:00,111.79,111.79,111.79,111.79,110.0,ATR
2023-01-25 09:43:00,111.78,111.78,111.78,111.78,952.0,ATR
2023-01-25 09:42:00,111.59,111.59,111.59,111.59,110.0,ATR
2023-01-25 09:39:00,111.79,111.79,111.79,111.79,182.0,ATR
2023-01-25 09:37:00,111.835,111.835,111.835,111.835,216.0,ATR
2023-01-25 09:36:00,112.0315,112.0315,112.0315,112.0315,843.0,ATR
2023-01-25 09:35:00,111.805,111.81,111.8,111.81,1018.0,ATR
2023-01-25 09:34:00,111.28,111.28,111.28,111.28,142.0,ATR
2023-01-25 09:33:00,112.0,112.0,111.98,111.98,605.0,ATR
2023-01-25 09:32:00,111.07,111.07,111.07,111.07,200.0,ATR
2023-01-25 09:31:00,111.84,111.84,111.765,111.765,1443.0,ATR
2023-01-24 16:01:00,112.84,112.84,112.84,112.84,1889.0,ATR
2023-01-24 16:00:00,113.02,113.02,112.77,112.84,10986.0,ATR
2023-01-24 15:59:00,113.049,113.06,112.98,112.99,4063.0,ATR
2023-01-24 15:58:00,113.03,113.05,113.005,113.03,2944.0,ATR
2023-01-24 15:57:00,113.01,113.02,112.97,113.005,2862.0,ATR
2023-01-24 15:56:00,113.03,113.03,112.98,112.98,3000.0,ATR
2023-01-24 15:55:00,112.94,113.025,112.94,113.0,2336.0,ATR
2023-01-24 15:54:00,112.96,113.0,112.96,113.0,1984.0,ATR
2023-01-24 15:53:00,113.0,113.015,112.9275,112.97,2335.0,ATR
2023-01-24 15:52:00,113.01,113.03,112.97,113.0,2011.0,ATR
2023-01-24 15:51:00,112.95,113.03,112.92,113.0,4400.0,ATR
2023-01-24 15:50:00,112.965,113.01,112.965,112.98,1175.0,ATR
2023-01-24 15:49:00,113.0,113.01,112.97,112.99,1503.0,ATR
2023-01-24 15:48:00,112.87,112.98,112.86,112.98,3169.0,ATR
2023-01-24 15:47:00,112.87,112.87,112.87,112.87,840.0,ATR
2023-01-24 15:45:00,112.9,112.9,112.9,112.9,1019.0,ATR
2023-01-24 15:44:00,112.79,112.84,112.79,112.81,435.0,ATR
2023-01-24 15:42:00,112.895,112.895,112.88,112.88,743.0,ATR
2023-01-24 15:41:00,112.895,112.93,112.87,112.91,1361.0,ATR
2023-01-24 15:40:00,112.93,112.93,112.93,112.93,424.0,ATR
2023-01-24 15:38:00,112.8352,112.8352,112.8352,112.8352,306.0,ATR
2023-01-24 15:37:00,112.9,112.9,112.9,112.9,373.0,ATR
2023-01-24 15:36:00,112.86,112.91,112.86,112.91,422.0,ATR
2023-01-24 15:35:00,112.84,112.84,112.84,112.84,337.0,ATR
2023-01-24 15:34:00,112.89,112.89,112.89,112.89,400.0,ATR
2023-01-24 15:32:00,112.95,112.95,112.93,112.93,631.0,ATR
2023-01-24 15:31:00,112.97,112.97,112.97,112.97,446.0,ATR
2023-01-24 15:29:00,113.0,113.0,113.0,113.0,178.0,ATR
2023-01-24 15:28:00,113.0,113.0,113.0,113.0,276.0,ATR
2023-01-24 15:27:00,112.98,112.98,112.94,112.965,667.0,ATR
2023-01-24 15:26:00,113.05,113.05,113.05,113.05,228.0,ATR
2023-01-24 15:24:00,113.055,113.055,113.055,113.055,118.0,ATR
2023-01-24 15:23:00,113.04,113.05,113.04,113.04,431.0,ATR
2023-01-24 15:22:00,113.11,113.11,113.11,113.11,234.0,ATR
2023-01-24 15:21:00,113.0411,113.065,113.0411,113.06,1156.0,ATR
2023-01-24 15:20:00,113.05,113.145,113.04,113.11,2026.0,ATR
2023-01-24 15:19:00,113.05,113.07,113.05,113.05,870.0,ATR
2023-01-24 15:18:00,113.01,113.01,113.01,113.01,254.0,ATR
2023-01-24 15:17:00,113.01,113.01,113.01,113.01,419.0,ATR
2023-01-24 15:16:00,113.03,113.04,113.01,113.01,1239.0,ATR
2023-01-24 15:15:00,113.04,113.04,113.04,113.04,200.0,ATR
2023-01-24 15:14:00,113.05,113.05,113.05,113.05,218.0,ATR
2023-01-24 15:13:00,113.06,113.09,113.055,113.055,446.0,ATR
2023-01-24 15:12:00,113.055,113.07,113.055,113.07,613.0,ATR
2023-01-24 15:11:00,113.035,113.05,113.035,113.05,270.0,ATR
2023-01-24 15:09:00,113.04,113.055,113.04,113.055,252.0,ATR
2023-01-24 15:07:00,113.04,113.04,113.04,113.04,155.0,ATR
2023-01-24 15:06:00,113.035,113.035,113.035,113.035,386.0,ATR
2023-01-24 15:05:00,113.05,113.05,113.05,113.05,228.0,ATR
2023-01-24 15:04:00,113.06,113.06,113.05,113.05,288.0,ATR
2023-01-24 15:03:00,113.06,113.08,113.06,113.08,699.0,ATR
2023-01-24 15:00:00,113.02,113.02,113.02,113.02,126.0,ATR
2023-01-24 14:58:00,113.07,113.07,113.0,113.015,2040.0,ATR
2023-01-24 14:56:00,113.055,113.055,113.055,113.055,551.0,ATR
2023-01-24 14:55:00,113.015,113.015,113.015,113.015,324.0,ATR
2023-01-24 14:54:00,113.025,113.025,113.015,113.015,417.0,ATR
2023-01-24 14:52:00,112.98,113.01,112.98,113.01,948.0,ATR
2023-01-24 14:50:00,113.01,113.01,113.01,113.01,406.0,ATR
2023-01-24 14:49:00,113.01,113.03,113.01,113.03,362.0,ATR
2023-01-24 14:46:00,113.005,113.005,113.005,113.005,187.0,ATR
2023-01-24 14:45:00,113.005,113.005,113.005,113.005,165.0,ATR
2023-01-24 14:43:00,112.975,112.975,112.975,112.975,121.0,ATR
2023-01-24 14:41:00,112.985,112.985,112.985,112.985,125.0,ATR
2023-01-24 14:40:00,113.01,113.01,113.01,113.01,624.0,ATR
2023-01-24 14:39:00,113.06,113.06,113.06,113.06,117.0,ATR
2023-01-24 14:38:00,113.08,113.08,113.035,113.065,619.0,ATR
2023-01-24 14:37:00,113.05,113.08,113.05,113.08,603.0,ATR
2023-01-24 14:36:00,113.03,113.04,113.01,113.01,376.0,ATR
2023-01-24 14:34:00,113.0,113.0,113.0,113.0,335.0,ATR
2023-01-24 14:32:00,112.95,112.95,112.95,112.95,175.0,ATR
2023-01-24 14:30:00,112.95,112.95,112.95,112.95,164.0,ATR
2023-01-24 14:29:00,112.92,112.92,112.92,112.92,234.0,ATR
2023-01-24 14:28:00,113.0,113.0,113.0,113.0,232.0,ATR
2023-01-24 14:27:00,113.005,113.005,113.005,113.005,122.0,ATR
2023-01-24 14:25:00,113.005,113.005,113.005,113.005,151.0,ATR
2023-01-24 14:24:00,113.0,113.0,113.0,113.0,139.0,ATR
2023-01-24 14:23:00,112.98,112.98,112.96,112.96,485.0,ATR
2023-01-24 14:21:00,113.03,113.03,113.03,113.03,164.0,ATR
2023-01-24 14:19:00,113.025,113.025,113.025,113.025,127.0,ATR
2023-01-24 14:18:00,113.0,113.06,112.98,113.005,1050.0,ATR
2023-01-24 14:16:00,112.99,112.99,112.94,112.94,744.0,ATR
2023-01-24 14:15:00,113.01,113.01,113.01,113.01,103.0,ATR
2023-01-24 14:14:00,113.095,113.105,113.095,113.105,985.0,ATR
2023-01-24 14:13:00,113.07,113.11,113.03,113.085,1534.0,ATR
2023-01-24 14:12:00,113.01,113.01,113.01,113.01,113.0,ATR
2023-01-24 14:10:00,113.01,113.01,113.01,113.01,222.0,ATR
2023-01-24 14:09:00,113.01,113.01,113.01,113.01,313.0,ATR
2023-01-24 14:08:00,113.01,113.01,113.01,113.01,307.0,ATR
2023-01-24 14:07:00,113.01,113.06,113.01,113.01,505.0,ATR
2023-01-24 14:06:00,112.94,113.01,112.94,113.01,2570.0,ATR
2023-01-24 14:05:00,113.03,113.03,113.03,113.03,820.0,ATR
2023-01-24 14:02:00,113.03,113.03,112.97,113.005,1303.0,ATR
2023-01-24 14:01:00,113.05,113.05,113.05,113.05,435.0,ATR
2023-01-24 13:59:00,113.025,113.04,113.025,113.04,867.0,ATR
2023-01-24 13:57:00,113.09,113.09,113.09,113.09,124.0,ATR
2023-01-24 13:56:00,113.09,113.09,113.08,113.09,612.0,ATR
2023-01-24 13:55:00,113.11,113.11,113.085,113.085,517.0,ATR
2023-01-24 13:54:00,113.105,113.105,113.105,113.105,350.0,ATR
2023-01-24 13:53:00,113.085,113.085,113.085,113.085,142.0,ATR
2023-01-24 13:52:00,113.05,113.09,113.05,113.09,548.0,ATR
2023-01-24 13:49:00,113.09,113.09,113.09,113.09,122.0,ATR
2023-01-24 13:48:00,113.07,113.09,113.07,113.08,500.0,ATR
2023-01-24 13:47:00,113.075,113.075,113.075,113.075,235.0,ATR
2023-01-24 13:45:00,113.06,113.06,113.06,113.06,103.0,ATR
2023-01-24 13:44:00,113.01,113.01,113.01,113.01,410.0,ATR
2023-01-24 13:43:00,113.01,113.01,113.01,113.01,110.0,ATR
2023-01-24 13:41:00,112.97,113.02,112.97,113.02,1285.0,ATR
2023-01-24 13:38:00,112.937,112.937,112.937,112.937,663.0,ATR
2023-01-24 13:28:00,112.87,112.87,112.87,112.87,190.0,ATR
2023-01-24 13:24:00,112.92,112.935,112.89,112.935,796.0,ATR
2023-01-24 13:19:00,112.96,113.01,112.96,112.99,1281.0,ATR
2023-01-24 13:17:00,112.85,112.85,112.85,112.85,230.0,ATR
2023-01-24 13:12:00,112.8843,112.8843,112.8843,112.8843,115.0,ATR
2023-01-24 13:05:00,112.9,112.91,112.9,112.91,834.0,ATR
2023-01-24 13:02:00,112.92,112.92,112.92,112.92,149.0,ATR
2023-01-24 12:57:00,112.82,112.88,112.82,112.88,938.0,ATR
2023-01-24 12:52:00,112.79,112.79,112.79,112.79,113.0,ATR
2023-01-24 12:49:00,112.795,112.795,112.795,112.795,103.0,ATR
2023-01-24 12:44:00,112.75,112.75,112.75,112.75,103.0,ATR
2023-01-24 12:43:00,112.75,112.75,112.75,112.75,334.0,ATR
2023-01-24 12:41:00,112.74,112.74,112.735,112.735,238.0,ATR
2023-01-24 12:40:00,112.79,112.79,112.74,112.74,740.0,ATR
2023-01-24 12:37:00,112.87,112.87,112.87,112.87,162.0,ATR
2023-01-24 12:36:00,112.85,112.85,112.85,112.85,200.0,ATR
2023-01-24 12:28:00,112.88,112.88,112.86,112.86,475.0,ATR
2023-01-24 12:25:00,112.935,112.935,112.935,112.935,123.0,ATR
2023-01-24 12:24:00,112.94,112.99,112.94,112.99,504.0,ATR
2023-01-24 12:21:00,112.91,112.91,112.91,112.91,110.0,ATR
2023-01-24 12:16:00,112.97,113.0,112.97,113.0,442.0,ATR
2023-01-24 12:13:00,113.005,113.005,113.005,113.005,113.0,ATR
2023-01-24 12:11:00,112.9591,112.9591,112.9591,112.9591,242.0,ATR
2023-01-24 12:09:00,112.9,112.9,112.9,112.9,497.0,ATR
2023-01-24 12:08:00,112.8,112.94,112.8,112.94,1188.0,ATR
2023-01-24 12:05:00,112.67,112.67,112.67,112.67,452.0,ATR
2023-01-24 12:03:00,112.77,112.77,112.745,112.745,586.0,ATR
2023-01-24 12:02:00,112.8,112.8,112.75,112.75,813.0,ATR
2023-01-24 12:01:00,112.79,112.79,112.79,112.79,169.0,ATR
2023-01-24 11:51:00,112.7966,112.7966,112.7966,112.7966,499.0,ATR
2023-01-24 11:50:00,112.825,112.825,112.825,112.825,326.0,ATR
2023-01-24 11:38:00,112.865,112.865,112.865,112.865,299.0,ATR
2023-01-24 11:34:00,112.94,112.9725,112.89,112.9725,578.0,ATR
2023-01-24 11:31:00,113.03,113.03,112.97,113.03,573.0,ATR
2023-01-24 11:30:00,112.99,113.065,112.97,113.065,2441.0,ATR
2023-01-24 11:29:00,113.06,113.08,113.06,113.08,8464.0,ATR
2023-01-24 11:28:00,113.06,113.06,113.06,113.06,122.0,ATR
2023-01-24 11:27:00,113.04,113.04,113.04,113.04,497.0,ATR
2023-01-24 11:26:00,112.96,112.96,112.96,112.96,246.0,ATR
2023-01-24 11:22:00,112.88,112.88,112.88,112.88,115.0,ATR
2023-01-24 11:18:00,112.9,112.9,112.9,112.9,220.0,ATR
2023-01-24 11:17:00,112.86,112.865,112.86,112.865,285.0,ATR
2023-01-24 11:15:00,112.81,112.81,112.81,112.81,317.0,ATR
2023-01-24 11:08:00,112.95,112.95,112.95,112.95,140.0,ATR
2023-01-24 11:04:00,113.0,113.0,112.99,112.99,267.0,ATR
2023-01-24 11:02:00,113.0,113.0,113.0,113.0,991.0,ATR
2023-01-24 11:01:00,112.98,112.98,112.98,112.98,134.0,ATR
2023-01-24 10:58:00,112.88,112.88,112.88,112.88,104.0,ATR
2023-01-24 10:57:00,112.81,112.88,112.81,112.88,619.0,ATR
2023-01-24 10:53:00,112.7126,112.7126,112.7126,112.7126,147.0,ATR
2023-01-24 10:51:00,112.69,112.69,112.68,112.68,646.0,ATR
2023-01-24 10:48:00,112.54,112.55,112.54,112.55,431.0,ATR
2023-01-24 10:44:00,112.54,112.57,112.475,112.57,1047.0,ATR
2023-01-24 10:41:00,112.46,112.47,112.34,112.34,1021.0,ATR
2023-01-24 10:38:00,112.44,112.44,112.44,112.44,109.0,ATR
2023-01-24 10:37:00,112.51,112.51,112.29,112.29,845.0,ATR
2023-01-24 10:36:00,112.605,112.605,112.605,112.605,215.0,ATR
2023-01-24 10:29:00,112.58,112.58,112.58,112.58,172.0,ATR
2023-01-24 10:25:00,112.69,112.69,112.69,112.69,137.0,ATR
2023-01-24 10:20:00,112.48,112.48,112.48,112.48,555.0,ATR
2023-01-24 10:17:00,112.52,112.52,112.52,112.52,111.0,ATR
2023-01-24 10:13:00,112.59,112.6,112.55,112.55,615.0,ATR
2023-01-24 10:12:00,112.565,112.565,112.565,112.565,511.0,ATR
2023-01-24 10:07:00,112.33,112.33,112.33,112.33,275.0,ATR
2023-01-24 10:04:00,111.975,112.11,111.975,112.11,1173.0,ATR
2023-01-24 10:03:00,111.785,111.785,111.785,111.785,206.0,ATR
2023-01-24 10:01:00,112.2,112.2,111.76,111.76,447.0,ATR
2023-01-24 10:00:00,111.81,111.875,111.81,111.875,793.0,ATR
2023-01-24 09:59:00,111.83,111.83,111.83,111.83,167.0,ATR
2023-01-24 09:35:00,113.03,113.03,113.03,113.03,178.0,ATR
2023-01-23 16:01:00,113.36,113.36,113.36,113.36,2607.0,ATR
2023-01-23 16:00:00,113.15,113.38,113.15,113.38,11300.0,ATR
2023-01-23 15:59:00,113.14,113.14,113.11,113.14,2631.0,ATR
2023-01-23 15:58:00,113.21,113.21,113.11,113.11,1994.0,ATR
2023-01-23 15:57:00,113.18,113.23,113.18,113.23,1158.0,ATR
2023-01-23 15:56:00,113.09,113.16,113.03,113.11,6748.0,ATR
2023-01-23 15:55:00,113.115,113.115,113.115,113.115,594.0,ATR
2023-01-23 15:54:00,113.115,113.115,113.115,113.115,320.0,ATR
2023-01-23 15:53:00,113.14,113.14,113.1,113.12,1569.0,ATR
2023-01-23 15:52:00,113.13,113.17,113.13,113.15,1509.0,ATR
2023-01-23 15:51:00,113.105,113.14,113.105,113.125,2656.0,ATR
2023-01-23 15:50:00,113.07,113.1,113.07,113.1,1100.0,ATR
2023-01-23 15:49:00,113.08,113.08,113.07,113.07,426.0,ATR
2023-01-23 15:48:00,113.09,113.09,113.05,113.05,669.0,ATR
2023-01-23 15:47:00,113.06,113.065,113.05,113.05,1434.0,ATR
2023-01-23 15:46:00,113.045,113.11,113.045,113.11,1238.0,ATR
2023-01-23 15:45:00,113.03,113.05,113.02,113.02,951.0,ATR
2023-01-23 15:44:00,113.0,113.02,113.0,113.0,439.0,ATR
2023-01-23 15:43:00,112.98,112.98,112.98,112.98,819.0,ATR
2023-01-23 15:42:00,112.98,112.98,112.98,112.98,410.0,ATR
2023-01-23 15:41:00,113.0,113.0,112.94,112.94,1955.0,ATR
2023-01-23 15:40:00,113.035,113.035,113.035,113.035,261.0,ATR
2023-01-23 15:39:00,113.0,113.02,113.0,113.02,1224.0,ATR
2023-01-23 15:37:00,112.9115,112.9115,112.9115,112.9115,174.0,ATR
2023-01-23 15:36:00,112.87,112.87,112.87,112.87,215.0,ATR
2023-01-23 15:33:00,112.89,112.89,112.89,112.89,296.0,ATR
2023-01-23 15:32:00,112.8848,112.8848,112.8848,112.8848,263.0,ATR
2023-01-23 15:31:00,112.93,113.03,112.93,112.93,1407.0,ATR
2023-01-23 15:29:00,112.88,112.88,112.88,112.88,232.0,ATR
2023-01-23 15:28:00,112.87,112.87,112.87,112.87,368.0,ATR
2023-01-23 15:26:00,112.89,112.89,112.89,112.89,434.0,ATR
2023-01-23 15:24:00,112.91,112.91,112.91,112.91,357.0,ATR
2023-01-23 15:21:00,113.01,113.04,112.87,112.875,3095.0,ATR
2023-01-23 15:19:00,113.02,113.02,113.02,113.02,814.0,ATR
2023-01-23 15:18:00,113.03,113.03,113.03,113.03,130.0,ATR
2023-01-23 15:16:00,113.02,113.02,112.99,113.015,887.0,ATR
2023-01-23 15:15:00,113.025,113.025,113.025,113.025,115.0,ATR
2023-01-23 15:14:00,113.0,113.03,113.0,113.005,654.0,ATR
2023-01-23 15:13:00,112.99,112.99,112.99,112.99,236.0,ATR
2023-01-23 15:11:00,112.93,112.93,112.93,112.93,114.0,ATR
2023-01-23 15:10:00,112.93,112.93,112.93,112.93,305.0,ATR
2023-01-23 15:07:00,112.85,112.85,112.85,112.85,417.0,ATR
2023-01-23 15:05:00,112.78,112.82,112.78,112.81,848.0,ATR
2023-01-23 15:02:00,112.74,112.74,112.71,112.71,437.0,ATR
2023-01-23 15:00:00,112.64,112.64,112.64,112.64,329.0,ATR
2023-01-23 14:58:00,112.62,112.67,112.62,112.67,740.0,ATR
2023-01-23 14:57:00,112.65,112.65,112.65,112.65,601.0,ATR
2023-01-23 14:56:00,112.595,112.6,112.595,112.6,258.0,ATR
2023-01-23 14:55:00,112.53,112.595,112.53,112.58,1300.0,ATR
2023-01-23 14:51:00,112.58,112.5825,112.58,112.5825,216.0,ATR
2023-01-23 14:50:00,112.54,112.55,112.54,112.55,1115.0,ATR
2023-01-23 14:49:00,112.47,112.47,112.47,112.47,316.0,ATR
2023-01-23 14:47:00,112.46,112.49,112.46,112.49,248.0,ATR
2023-01-23 14:46:00,112.57,112.57,112.535,112.535,1090.0,ATR
2023-01-23 14:42:00,112.63,112.63,112.63,112.63,121.0,ATR
2023-01-23 14:40:00,112.6179,112.6179,112.6179,112.6179,126.0,ATR
2023-01-23 14:36:00,112.62,112.66,112.61,112.66,1217.0,ATR
2023-01-23 14:33:00,112.71,112.71,112.68,112.68,415.0,ATR
2023-01-23 14:31:00,112.69,112.69,112.69,112.69,867.0,ATR
2023-01-23 14:27:00,112.63,112.63,112.63,112.63,156.0,ATR
2023-01-23 14:26:00,112.76,112.76,112.69,112.69,565.0,ATR
2023-01-23 14:25:00,112.8,112.8,112.8,112.8,424.0,ATR
2023-01-23 14:19:00,112.82,112.86,112.82,112.83,1088.0,ATR
2023-01-23 14:12:00,112.95,112.965,112.95,112.965,405.0,ATR
2023-01-23 14:10:00,112.99,112.99,112.98,112.98,428.0,ATR
2023-01-23 14:09:00,113.035,113.035,113.035,113.035,112.0,ATR
2023-01-23 14:04:00,113.0,113.0,113.0,113.0,223.0,ATR
2023-01-23 14:01:00,113.15,113.15,113.15,113.15,535.0,ATR
2023-01-23 13:59:00,113.2,113.2,113.2,113.2,145.0,ATR
2023-01-23 13:58:00,113.28,113.28,113.28,113.28,636.0,ATR
2023-01-23 13:57:00,113.27,113.27,113.255,113.255,1087.0,ATR
2023-01-23 13:56:00,113.22,113.22,113.22,113.22,106.0,ATR
2023-01-23 13:55:00,113.23,113.23,113.23,113.23,159.0,ATR
2023-01-23 13:51:00,113.28,113.28,113.28,113.28,471.0,ATR
2023-01-23 13:47:00,113.29,113.29,113.29,113.29,151.0,ATR
2023-01-23 13:46:00,113.35,113.35,113.35,113.35,433.0,ATR
2023-01-23 13:44:00,113.36,113.36,113.36,113.36,113.0,ATR
2023-01-23 13:42:00,113.24,113.26,113.195,113.26,1287.0,ATR
2023-01-23 13:40:00,113.19,113.19,113.19,113.19,417.0,ATR
2023-01-23 13:38:00,113.24,113.24,113.17,113.17,783.0,ATR
2023-01-23 13:37:00,113.265,113.27,113.265,113.265,457.0,ATR
2023-01-23 13:36:00,113.265,113.265,113.265,113.265,171.0,ATR
2023-01-23 13:35:00,113.29,113.29,113.29,113.29,135.0,ATR
2023-01-23 13:32:00,113.24,113.25,113.24,113.25,211.0,ATR
2023-01-23 13:30:00,113.22,113.22,113.22,113.22,118.0,ATR
2023-01-23 13:29:00,113.26,113.26,113.26,113.26,760.0,ATR
2023-01-23 13:28:00,113.3599,113.3599,113.325,113.325,653.0,ATR
2023-01-23 13:27:00,113.325,113.325,113.325,113.325,100.0,ATR
2023-01-23 13:25:00,113.32,113.32,113.32,113.32,286.0,ATR
2023-01-23 13:23:00,113.345,113.345,113.345,113.345,210.0,ATR
2023-01-23 13:21:00,113.34,113.34,113.34,113.34,198.0,ATR
2023-01-23 13:20:00,113.365,113.39,113.34,113.34,908.0,ATR
2023-01-23 13:19:00,113.34,113.37,113.34,113.37,754.0,ATR
2023-01-23 13:16:00,113.38,113.38,113.34,113.36,387.0,ATR
2023-01-23 13:11:00,113.33,113.33,113.33,113.33,204.0,ATR
2023-01-23 13:10:00,113.33,113.33,113.33,113.33,105.0,ATR
2023-01-23 13:09:00,113.28,113.28,113.28,113.28,303.0,ATR
2023-01-23 13:06:00,113.23,113.23,113.23,113.23,107.0,ATR
2023-01-23 13:04:00,113.25,113.295,113.23,113.29,1070.0,ATR
2023-01-23 13:02:00,113.295,113.41,113.26,113.26,1040.0,ATR
2023-01-23 13:00:00,113.27,113.27,113.27,113.27,208.0,ATR
2023-01-23 12:54:00,113.28,113.28,113.245,113.245,339.0,ATR
2023-01-23 12:53:00,113.225,113.225,113.22,113.22,264.0,ATR
2023-01-23 12:52:00,113.215,113.215,113.215,113.215,105.0,ATR
2023-01-23 12:49:00,113.21,113.21,113.21,113.21,288.0,ATR
2023-01-23 12:48:00,113.21,113.28,113.21,113.28,509.0,ATR
2023-01-23 12:45:00,113.21,113.21,113.21,113.21,103.0,ATR
2023-01-23 12:42:00,113.176,113.176,113.176,113.176,129.0,ATR
2023-01-23 12:40:00,113.2,113.22,113.19,113.22,542.0,ATR
2023-01-23 12:39:00,113.105,113.105,113.105,113.105,202.0,ATR
2023-01-23 12:38:00,113.105,113.2,113.105,113.105,464.0,ATR
2023-01-23 12:34:00,113.08,113.14,113.08,113.13,491.0,ATR
2023-01-23 12:33:00,113.09,113.09,113.09,113.09,121.0,ATR
2023-01-23 12:32:00,113.09,113.12,113.09,113.12,358.0,ATR
2023-01-23 12:31:00,113.07,113.08,113.07,113.08,206.0,ATR
2023-01-23 12:29:00,113.07,113.07,113.07,113.07,124.0,ATR
2023-01-23 12:27:00,112.94,113.01,112.94,113.005,1034.0,ATR
2023-01-23 12:26:00,112.95,112.95,112.94,112.94,1015.0,ATR
2023-01-23 12:25:00,113.05,113.05,113.0,113.025,1542.0,ATR
2023-01-23 12:23:00,113.05,113.05,113.05,113.05,101.0,ATR
2023-01-23 12:22:00,113.05,113.05,113.05,113.05,195.0,ATR
2023-01-23 12:21:00,113.005,113.005,113.005,113.005,141.0,ATR
2023-01-23 12:17:00,113.03,113.03,113.02,113.02,336.0,ATR
2023-01-23 12:16:00,113.03,113.03,112.9727,112.9727,232.0,ATR
2023-01-23 12:13:00,113.03,113.03,112.96,112.96,919.0,ATR
2023-01-23 12:09:00,113.07,113.15,113.07,113.07,450.0,ATR
2023-01-23 12:08:00,113.15,113.15,113.15,113.15,169.0,ATR
2023-01-23 12:05:00,113.23,113.23,113.23,113.23,210.0,ATR
2023-01-23 12:04:00,113.23,113.23,113.23,113.23,100.0,ATR
2023-01-23 12:03:00,113.19,113.23,113.19,113.23,211.0,ATR
2023-01-23 12:01:00,113.31,113.31,113.31,113.31,494.0,ATR
2023-01-23 12:00:00,113.38,113.4,113.35,113.365,994.0,ATR
2023-01-23 11:56:00,113.35,113.35,113.35,113.35,132.0,ATR
2023-01-23 11:55:00,113.3626,113.3626,113.3626,113.3626,403.0,ATR
2023-01-23 11:54:00,113.285,113.375,113.285,113.375,1132.0,ATR
2023-01-23 11:53:00,113.255,113.34,113.21,113.21,436.0,ATR
2023-01-23 11:51:00,113.35,113.35,113.33,113.33,421.0,ATR
2023-01-23 11:48:00,113.32,113.35,113.32,113.35,677.0,ATR
2023-01-23 11:47:00,113.52,113.52,113.52,113.52,237.0,ATR
2023-01-23 11:45:00,113.52,113.52,113.52,113.52,301.0,ATR
2023-01-23 11:40:00,113.425,113.425,113.425,113.425,111.0,ATR
2023-01-23 11:39:00,113.425,113.425,113.425,113.425,157.0,ATR
2023-01-23 11:38:00,113.395,113.49,113.395,113.49,325.0,ATR
2023-01-23 11:37:00,113.39,113.42,113.39,113.42,636.0,ATR
2023-01-23 11:34:00,113.47,113.47,113.47,113.47,100.0,ATR
2023-01-23 11:33:00,113.39,113.54,113.39,113.54,966.0,ATR
2023-01-23 11:32:00,113.283,113.41,113.283,113.35,840.0,ATR
2023-01-23 11:31:00,113.5,113.5,113.255,113.255,420.0,ATR
2023-01-23 11:29:00,113.65,113.65,113.65,113.65,652.0,ATR
2023-01-23 11:26:00,113.63,113.63,113.63,113.63,109.0,ATR
2023-01-23 11:25:00,113.73,113.73,113.63,113.63,727.0,ATR
2023-01-23 11:24:00,113.63,113.63,113.63,113.63,101.0,ATR
2023-01-23 11:23:00,113.73,113.73,113.73,113.73,128.0,ATR
2023-01-23 11:22:00,113.53,113.53,113.53,113.53,211.0,ATR
2023-01-23 11:21:00,113.62,113.62,113.62,113.62,223.0,ATR
2023-01-23 11:20:00,113.53,113.59,113.48,113.57,1485.0,ATR
2023-01-23 11:19:00,113.45,113.45,113.45,113.45,164.0,ATR
2023-01-23 11:17:00,113.46,113.46,113.46,113.46,460.0,ATR
2023-01-23 11:15:00,113.4,113.46,113.4,113.46,643.0,ATR
2023-01-23 11:14:00,113.46,113.46,113.46,113.46,301.0,ATR
2023-01-23 11:12:00,113.47,113.47,113.47,113.47,277.0,ATR
2023-01-23 11:11:00,113.48,113.525,113.48,113.525,619.0,ATR
2023-01-23 11:09:00,113.54,113.54,113.54,113.54,149.0,ATR
2023-01-23 11:08:00,113.475,113.475,113.475,113.475,137.0,ATR
2023-01-23 11:07:00,113.49,113.49,113.49,113.49,214.0,ATR
2023-01-23 11:05:00,113.3,113.42,113.3,113.41,784.0,ATR
2023-01-23 11:04:00,113.35,113.35,113.285,113.3,1364.0,ATR
2023-01-23 11:03:00,113.285,113.285,113.285,113.285,106.0,ATR
2023-01-23 10:59:00,113.28,113.28,113.28,113.28,202.0,ATR
2023-01-23 10:57:00,113.265,113.265,113.265,113.265,232.0,ATR
2023-01-23 10:56:00,113.18,113.19,113.18,113.19,353.0,ATR
2023-01-23 10:55:00,113.13,113.13,113.13,113.13,322.0,ATR
2023-01-23 10:54:00,113.112,113.125,113.07,113.07,653.0,ATR
2023-01-23 10:52:00,113.12,113.12,113.12,113.12,311.0,ATR
2023-01-23 10:51:00,113.19,113.19,113.19,113.19,331.0,ATR
2023-01-23 10:49:00,113.18,113.18,113.18,113.18,717.0,ATR
2023-01-23 10:48:00,113.1712,113.1712,113.1712,113.1712,353.0,ATR
2023-01-23 10:47:00,113.06,113.075,113.06,113.075,1222.0,ATR
2023-01-23 10:46:00,112.93,112.93,112.93,112.93,201.0,ATR
2023-01-23 10:45:00,113.12,113.12,112.93,112.93,1165.0,ATR
2023-01-23 10:44:00,113.18,113.18,113.18,113.18,195.0,ATR
2023-01-23 10:43:00,113.255,113.255,113.255,113.255,114.0,ATR
2023-01-23 10:41:00,113.255,113.255,113.255,113.255,238.0,ATR
2023-01-23 10:39:00,113.255,113.255,113.255,113.255,101.0,ATR
2023-01-23 10:34:00,113.2525,113.2525,113.2525,113.2525,103.0,ATR
2023-01-23 10:32:00,113.255,113.255,113.255,113.255,118.0,ATR
2023-01-23 10:29:00,112.975,113.09,112.975,113.05,936.0,ATR
2023-01-23 10:28:00,112.9,112.9,112.9,112.9,103.0,ATR
2023-01-23 10:26:00,112.85,112.85,112.85,112.85,102.0,ATR
2023-01-23 10:24:00,113.21,113.22,113.14,113.14,1060.0,ATR
2023-01-23 10:23:00,113.3292,113.3292,113.215,113.215,224.0,ATR
2023-01-23 10:21:00,113.23,113.25,113.18,113.21,2195.0,ATR
2023-01-23 10:12:00,113.5823,113.5823,113.5823,113.5823,500.0,ATR
2023-01-23 10:11:00,113.425,113.425,113.32,113.425,4072.0,ATR
2023-01-23 10:04:00,113.6976,113.6976,113.43,113.43,915.0,ATR
2023-01-23 10:02:00,113.32,113.32,113.32,113.32,140.0,ATR
2023-01-23 10:01:00,112.99,113.17,112.99,113.17,914.0,ATR
2023-01-23 09:55:00,113.015,113.015,112.89,112.89,492.0,ATR
2023-01-23 09:52:00,113.095,113.095,113.095,113.095,100.0,ATR
2023-01-23 09:50:00,112.98,112.98,112.98,112.98,118.0,ATR
2023-01-23 09:49:00,113.14,113.14,113.015,113.03,995.0,ATR
2023-01-23 09:48:00,113.25,113.26,113.17,113.17,1573.0,ATR
2023-01-23 09:47:00,113.02,113.02,113.02,113.02,300.0,ATR
2023-01-23 09:42:00,113.4,113.43,113.4,113.43,581.0,ATR
2023-01-23 09:31:00,113.2,113.2,113.2,113.2,974.0,ATR
2023-01-20 16:02:00,113.29,113.29,113.29,113.29,578.0,ATR
2023-01-20 16:01:00,113.29,113.29,113.29,113.29,2270.0,ATR
2023-01-20 16:00:00,113.18,113.29,113.18,113.28,8606.0,ATR
2023-01-20 15:59:00,113.2125,113.2125,113.12,113.175,4243.0,ATR
2023-01-20 15:58:00,113.145,113.185,113.11,113.18,5003.0,ATR
2023-01-20 15:57:00,113.075,113.15,113.04,113.14,2498.0,ATR
2023-01-20 15:56:00,113.025,113.08,113.025,113.04,2642.0,ATR
2023-01-20 15:55:00,112.955,113.06,112.955,113.06,1456.0,ATR
2023-01-20 15:54:00,112.97,112.975,112.9,112.975,2592.0,ATR
2023-01-20 15:53:00,112.975,112.98,112.95,112.95,1849.0,ATR
2023-01-20 15:52:00,112.915,112.98,112.915,112.975,2054.0,ATR
2023-01-20 15:51:00,112.83,112.905,112.83,112.885,4308.0,ATR
2023-01-20 15:50:00,112.815,112.84,112.81,112.81,838.0,ATR
2023-01-20 15:49:00,112.73,112.76,112.73,112.76,1357.0,ATR
2023-01-20 15:48:00,112.67,112.76,112.67,112.71,3128.0,ATR
2023-01-20 15:47:00,112.65,112.709,112.64,112.67,1663.0,ATR
2023-01-20 15:46:00,112.66,112.7,112.66,112.69,1474.0,ATR
2023-01-20 15:45:00,112.68,112.69,112.68,112.69,624.0,ATR
2023-01-20 15:44:00,112.7375,112.7375,112.7375,112.7375,609.0,ATR
2023-01-20 15:43:00,112.715,112.715,112.715,112.715,606.0,ATR
2023-01-20 15:42:00,112.79,112.79,112.79,112.79,627.0,ATR
2023-01-20 15:41:00,112.76,112.76,112.74,112.74,1817.0,ATR
2023-01-20 15:40:00,112.795,112.795,112.795,112.795,623.0,ATR
2023-01-20 15:39:00,112.8,112.81,112.77,112.77,591.0,ATR
2023-01-20 15:38:00,112.845,112.899,112.79,112.79,1332.0,ATR
2023-01-20 15:35:00,112.845,112.845,112.845,112.845,223.0,ATR
2023-01-20 15:33:00,112.84,112.96,112.84,112.84,5463.0,ATR
2023-01-20 15:31:00,112.91,112.91,112.91,112.91,523.0,ATR
2023-01-20 15:30:00,112.92,112.92,112.9,112.9,530.0,ATR
2023-01-20 15:29:00,112.93,112.93,112.93,112.93,130.0,ATR
2023-01-20 15:28:00,112.955,112.955,112.955,112.955,286.0,ATR
2023-01-20 15:27:00,112.955,113.001,112.955,112.955,377.0,ATR
2023-01-20 15:26:00,112.93,112.93,112.93,112.93,247.0,ATR
2023-01-20 15:25:00,112.925,112.925,112.925,112.925,421.0,ATR
2023-01-20 15:24:00,112.9,112.93,112.85,112.93,1299.0,ATR
2023-01-20 15:22:00,112.93,112.93,112.93,112.93,293.0,ATR
2023-01-20 15:21:00,112.92,112.97,112.92,112.97,1412.0,ATR
2023-01-20 15:20:00,112.965,112.965,112.965,112.965,247.0,ATR
2023-01-20 15:19:00,113.005,113.005,112.965,112.965,421.0,ATR
2023-01-20 15:16:00,112.94,112.945,112.94,112.945,364.0,ATR
2023-01-20 15:15:00,112.95,112.95,112.95,112.95,271.0,ATR
2023-01-20 15:14:00,112.925,112.96,112.925,112.925,725.0,ATR
2023-01-20 15:13:00,112.935,112.935,112.935,112.935,295.0,ATR
2023-01-20 15:12:00,112.8219,112.88,112.8219,112.88,687.0,ATR
2023-01-20 15:11:00,112.875,112.875,112.875,112.875,240.0,ATR
2023-01-20 15:09:00,112.85,112.85,112.85,112.85,120.0,ATR
2023-01-20 15:07:00,112.79,112.86,112.79,112.86,685.0,ATR
2023-01-20 15:03:00,112.8,112.8,112.8,112.8,110.0,ATR
2023-01-20 15:01:00,112.8,112.8,112.69,112.69,358.0,ATR
2023-01-20 15:00:00,112.72,112.72,112.72,112.72,315.0,ATR
2023-01-20 14:59:00,112.6,112.6,112.6,112.6,306.0,ATR
2023-01-20 14:58:00,112.56,112.56,112.56,112.56,204.0,ATR
2023-01-20 14:57:00,112.57,112.57,112.57,112.57,242.0,ATR
2023-01-20 14:56:00,112.58,112.58,112.55,112.55,646.0,ATR
2023-01-20 14:52:00,112.51,112.53,112.5,112.53,1092.0,ATR
2023-01-20 14:50:00,112.515,112.515,112.515,112.515,150.0,ATR
2023-01-20 14:49:00,112.54,112.54,112.54,112.54,670.0,ATR
2023-01-20 14:47:00,112.61,112.61,112.57,112.57,1278.0,ATR
2023-01-20 14:45:00,112.63,112.63,112.61,112.61,733.0,ATR
2023-01-20 14:43:00,112.64,112.64,112.57,112.61,717.0,ATR
2023-01-20 14:42:00,112.605,112.605,112.605,112.605,144.0,ATR
2023-01-20 14:39:00,112.575,112.575,112.575,112.575,369.0,ATR
2023-01-20 14:37:00,112.56,112.62,112.56,112.62,479.0,ATR
2023-01-20 14:33:00,112.525,112.525,112.525,112.525,107.0,ATR
2023-01-20 14:32:00,112.485,112.485,112.485,112.485,154.0,ATR
2023-01-20 14:30:00,112.3628,112.3628,112.3628,112.3628,222.0,ATR
2023-01-20 14:26:00,112.36,112.36,112.36,112.36,456.0,ATR
2023-01-20 14:25:00,112.415,112.415,112.415,112.415,161.0,ATR
2023-01-20 14:20:00,112.41,112.41,112.41,112.41,475.0,ATR
2023-01-20 14:16:00,112.37,112.37,112.37,112.37,362.0,ATR
2023-01-20 14:14:00,112.355,112.355,112.355,112.355,204.0,ATR
2023-01-20 14:13:00,112.38,112.38,112.38,112.38,102.0,ATR
2023-01-20 14:11:00,112.2,112.29,112.2,112.29,1206.0,ATR
2023-01-20 14:10:00,112.225,112.225,112.225,112.225,222.0,ATR
2023-01-20 14:09:00,112.195,112.195,112.195,112.195,3321.0,ATR
2023-01-20 14:08:00,112.22,112.22,112.22,112.22,179.0,ATR
2023-01-20 14:07:00,112.19,112.24,112.19,112.24,651.0,ATR
2023-01-20 14:06:00,112.21,112.21,112.2,112.2,381.0,ATR
2023-01-20 14:03:00,112.22,112.22,112.22,112.22,282.0,ATR
2023-01-20 14:02:00,112.26,112.26,112.25,112.25,849.0,ATR
2023-01-20 14:00:00,112.385,112.385,112.385,112.385,173.0,ATR
2023-01-20 13:58:00,112.385,112.385,112.385,112.385,116.0,ATR
2023-01-20 13:55:00,112.35,112.35,112.35,112.35,1248.0,ATR
2023-01-20 13:53:00,112.35,112.35,112.35,112.35,117.0,ATR
2023-01-20 13:52:00,112.35,112.35,112.35,112.35,105.0,ATR
2023-01-20 13:50:00,112.25,112.26,112.25,112.255,499.0,ATR
2023-01-20 13:49:00,112.25,112.26,112.25,112.25,355.0,ATR
2023-01-20 13:48:00,112.24,112.24,112.2,112.22,2252.0,ATR
2023-01-20 13:39:00,112.32,112.32,112.205,112.205,397.0,ATR
2023-01-20 13:38:00,112.115,112.155,112.115,112.155,228.0,ATR
2023-01-20 13:37:00,112.09,112.15,112.09,112.15,442.0,ATR
2023-01-20 13:34:00,112.07,112.07,112.07,112.07,118.0,ATR
2023-01-20 13:33:00,112.05,112.05,112.05,112.05,176.0,ATR
2023-01-20 13:32:00,112.01,112.01,112.01,112.01,169.0,ATR
2023-01-20 13:31:00,112.005,112.005,112.0,112.0,261.0,ATR
2023-01-20 13:22:00,111.97,111.97,111.97,111.97,222.0,ATR
2023-01-20 13:21:00,111.9,111.9,111.85,111.88,673.0,ATR
2023-01-20 13:20:00,111.95,111.98,111.95,111.98,1026.0,ATR
2023-01-20 13:17:00,112.0,112.0,111.97,112.0,1359.0,ATR
2023-01-20 13:16:00,111.96,111.98,111.96,111.97,757.0,ATR
2023-01-20 13:14:00,111.94,111.94,111.94,111.94,387.0,ATR
2023-01-20 13:13:00,111.72,111.85,111.72,111.79,900.0,ATR
2023-01-20 13:12:00,111.77,111.84,111.77,111.84,582.0,ATR
2023-01-20 13:11:00,111.85,111.85,111.75,111.85,479.0,ATR
2023-01-20 13:08:00,111.95,111.95,111.95,111.95,220.0,ATR
2023-01-20 13:07:00,111.98,111.99,111.98,111.99,229.0,ATR
2023-01-20 13:05:00,111.96,112.0,111.96,112.0,306.0,ATR
2023-01-20 13:01:00,111.92,111.92,111.91,111.92,584.0,ATR
2023-01-20 12:59:00,111.88,111.9,111.87,111.87,1499.0,ATR
2023-01-20 12:58:00,111.88,112.02,111.88,112.02,230.0,ATR
2023-01-20 12:52:00,112.02,112.02,111.95,111.97,471.0,ATR
2023-01-20 12:47:00,111.94,111.99,111.9,111.9,518.0,ATR
2023-01-20 12:44:00,112.0,112.0,112.0,112.0,482.0,ATR
2023-01-20 12:43:00,111.99,111.99,111.99,111.99,263.0,ATR
2023-01-20 12:37:00,111.945,111.945,111.945,111.945,315.0,ATR
2023-01-20 12:33:00,111.8947,111.8947,111.8813,111.8813,629.0,ATR
2023-01-20 12:29:00,112.07,112.07,111.96,112.005,1097.0,ATR
2023-01-20 12:24:00,112.07,112.07,112.07,112.07,177.0,ATR
2023-01-20 12:22:00,112.095,112.21,112.095,112.21,303.0,ATR
2023-01-20 12:19:00,112.165,112.165,112.165,112.165,106.0,ATR
2023-01-20 12:17:00,112.15,112.15,112.09,112.14,830.0,ATR
2023-01-20 12:16:00,112.1,112.1,112.1,112.1,427.0,ATR
2023-01-20 12:15:00,112.17,112.17,112.17,112.17,236.0,ATR
2023-01-20 12:08:00,112.17,112.17,112.17,112.17,210.0,ATR
2023-01-20 12:06:00,112.125,112.125,112.125,112.125,239.0,ATR
2023-01-20 11:59:00,112.17,112.17,112.03,112.03,698.0,ATR
2023-01-20 11:57:00,112.17,112.17,112.17,112.17,236.0,ATR
2023-01-20 11:55:00,112.14,112.14,112.14,112.14,288.0,ATR
2023-01-20 11:54:00,112.16,112.16,112.14,112.145,438.0,ATR
2023-01-20 11:52:00,112.255,112.255,112.255,112.255,242.0,ATR
2023-01-20 11:50:00,112.265,112.265,112.265,112.265,143.0,ATR
2023-01-20 11:49:00,112.255,112.255,112.255,112.255,420.0,ATR
2023-01-20 11:48:00,112.26,112.26,112.26,112.26,135.0,ATR
2023-01-20 11:47:00,112.15,112.15,112.15,112.15,502.0,ATR
2023-01-20 11:46:00,112.2,112.2,112.2,112.2,125.0,ATR
2023-01-20 11:44:00,112.11,112.15,112.09,112.09,1275.0,ATR
2023-01-20 11:43:00,112.06,112.06,112.0,112.0,499.0,ATR
2023-01-20 11:41:00,112.09,112.09,112.09,112.09,160.0,ATR
2023-01-20 11:40:00,112.15,112.15,112.15,112.15,327.0,ATR
2023-01-20 11:39:00,112.12,112.12,112.12,112.12,407.0,ATR
2023-01-20 11:38:00,112.15,112.15,112.15,112.15,492.0,ATR
2023-01-20 11:35:00,112.34,112.34,112.255,112.255,418.0,ATR
2023-01-20 11:32:00,112.34,112.34,112.25,112.25,235.0,ATR
2023-01-20 11:31:00,112.36,112.36,112.36,112.36,325.0,ATR
2023-01-20 11:29:00,112.2,112.2,112.2,112.2,104.0,ATR
2023-01-20 11:26:00,112.29,112.29,112.29,112.29,110.0,ATR
2023-01-20 11:24:00,112.09,112.09,112.09,112.09,164.0,ATR
2023-01-20 11:20:00,112.22,112.22,112.22,112.22,228.0,ATR
2023-01-20 11:18:00,112.27,112.3,112.22,112.3,1155.0,ATR
2023-01-20 11:17:00,112.305,112.31,112.29,112.29,766.0,ATR
2023-01-20 11:16:00,112.305,112.305,112.305,112.305,142.0,ATR
2023-01-20 11:14:00,112.33,112.33,112.33,112.33,300.0,ATR
2023-01-20 11:13:00,112.34,112.345,112.34,112.345,246.0,ATR
2023-01-20 11:12:00,112.38,112.38,112.345,112.345,765.0,ATR
2023-01-20 11:08:00,112.28,112.38,112.28,112.36,488.0,ATR
2023-01-20 11:03:00,112.21,112.21,112.21,112.21,271.0,ATR
2023-01-20 11:02:00,112.29,112.35,112.24,112.24,1038.0,ATR
2023-01-20 11:00:00,112.28,112.28,112.28,112.28,499.0,ATR
2023-01-20 10:59:00,112.35,112.35,112.35,112.35,227.0,ATR
2023-01-20 10:56:00,112.395,112.395,112.3,112.3,287.0,ATR
2023-01-20 10:54:00,112.34,112.37,112.18,112.36,1693.0,ATR
2023-01-20 10:53:00,112.26,112.27,112.07,112.07,653.0,ATR
2023-01-20 10:51:00,112.195,112.195,112.095,112.095,414.0,ATR
2023-01-20 10:50:00,112.28,112.28,112.18,112.18,410.0,ATR
2023-01-20 10:49:00,112.18,112.18,112.18,112.18,102.0,ATR
2023-01-20 10:48:00,112.13,112.19,112.13,112.19,372.0,ATR
2023-01-20 10:47:00,112.31,112.31,112.15,112.265,1036.0,ATR
2023-01-20 10:41:00,112.345,112.345,112.1,112.175,4497.0,ATR
2023-01-20 10:40:00,112.345,112.345,112.345,112.345,104.0,ATR
2023-01-20 10:36:00,112.3464,112.42,112.23,112.42,2316.0,ATR
2023-01-20 10:35:00,112.36,112.36,112.36,112.36,210.0,ATR
2023-01-20 10:30:00,112.365,112.365,112.365,112.365,322.0,ATR
2023-01-20 10:25:00,112.2,112.2,112.2,112.2,103.0,ATR
2023-01-20 10:24:00,112.155,112.155,112.155,112.155,217.0,ATR
2023-01-20 10:23:00,111.94,112.14,111.85,112.045,2603.0,ATR
2023-01-20 10:17:00,111.9,111.94,111.73,111.73,2056.0,ATR
2023-01-20 10:15:00,112.03,112.03,112.03,112.03,493.0,ATR
2023-01-20 10:11:00,111.83,111.995,111.83,111.995,448.0,ATR
2023-01-20 10:09:00,112.005,112.005,112.005,112.005,175.0,ATR
2023-01-20 10:06:00,112.015,112.015,112.015,112.015,401.0,ATR
2023-01-20 10:00:00,111.83,111.83,111.74,111.74,1542.0,ATR
2023-01-20 09:59:00,111.71,112.025,111.71,112.025,631.0,ATR
2023-01-20 09:57:00,112.025,112.025,112.025,112.025,105.0,ATR
2023-01-20 09:56:00,112.03,112.03,112.03,112.03,260.0,ATR
2023-01-20 09:54:00,112.025,112.025,112.025,112.025,100.0,ATR
2023-01-20 09:50:00,111.6901,111.6901,111.6901,111.6901,103.0,ATR
2023-01-20 09:49:00,112.02,112.02,112.02,112.02,712.0,ATR
2023-01-20 09:41:00,112.01,112.01,112.01,112.01,105.0,ATR
2023-01-20 09:39:00,112.09,112.165,112.09,112.165,410.0,ATR
2023-01-20 09:37:00,112.35,112.35,112.35,112.35,202.0,ATR
2023-01-20 09:31:00,112.46,112.9352,112.46,112.9352,2630.0,ATR
2023-01-19 16:01:00,111.99,111.99,111.99,111.99,4536.0,ATR
2023-01-19 16:00:00,112.01,112.05,111.99,112.04,7010.0,ATR
2023-01-19 15:59:00,112.03,112.03,112.0,112.01,3138.0,ATR
2023-01-19 15:58:00,112.01,112.04,111.94,112.01,6050.0,ATR
2023-01-19 15:57:00,112.04,112.04,112.0,112.01,3771.0,ATR
2023-01-19 15:56:00,112.04,112.05,111.96,111.97,3429.0,ATR
2023-01-19 15:55:00,111.94,112.055,111.94,112.055,3825.0,ATR
2023-01-19 15:54:00,111.94,111.95,111.9,111.905,2810.0,ATR
2023-01-19 15:53:00,112.0,112.0,111.94,111.9725,561.0,ATR
2023-01-19 15:52:00,111.96,112.02,111.96,112.0,1949.0,ATR
2023-01-19 15:51:00,112.0,112.02,111.96,112.0,5173.0,ATR
2023-01-19 15:50:00,112.04,112.04,112.03,112.03,639.0,ATR
2023-01-19 15:49:00,112.01,112.02,111.9701,112.02,1244.0,ATR
2023-01-19 15:48:00,112.0,112.03,112.0,112.005,1482.0,ATR
2023-01-19 15:47:00,112.0,112.0,112.0,112.0,438.0,ATR
2023-01-19 15:46:00,112.059,112.059,112.0,112.0,1628.0,ATR
2023-01-19 15:45:00,112.04,112.04,112.0,112.0,766.0,ATR
2023-01-19 15:44:00,111.8546,111.99,111.8546,111.99,1808.0,ATR
2023-01-19 15:43:00,111.87,111.87,111.87,111.87,102.0,ATR
2023-01-19 15:42:00,111.94,111.94,111.94,111.94,704.0,ATR
2023-01-19 15:41:00,111.98,111.98,111.96,111.97,493.0,ATR
2023-01-19 15:39:00,112.085,112.085,112.04,112.04,1011.0,ATR
2023-01-19 15:37:00,112.07,112.08,112.07,112.075,845.0,ATR
2023-01-19 15:36:00,112.04,112.04,112.04,112.04,1035.0,ATR
2023-01-19 15:33:00,112.07,112.07,112.03,112.03,446.0,ATR
2023-01-19 15:31:00,112.13,112.13,112.13,112.13,349.0,ATR
2023-01-19 15:29:00,112.13,112.13,112.13,112.13,130.0,ATR
2023-01-19 15:28:00,112.23,112.23,112.18,112.18,639.0,ATR
2023-01-19 15:27:00,112.25,112.26,112.23,112.26,1164.0,ATR
2023-01-19 15:25:00,112.23,112.23,112.194,112.194,418.0,ATR
2023-01-19 15:24:00,112.21,112.21,112.21,112.21,489.0,ATR
2023-01-19 15:23:00,112.17,112.17,112.17,112.17,373.0,ATR
2023-01-19 15:22:00,112.325,112.325,112.25,112.25,1416.0,ATR
2023-01-19 15:21:00,112.41,112.41,112.41,112.41,220.0,ATR
2023-01-19 15:19:00,112.33,112.375,112.295,112.335,1094.0,ATR
2023-01-19 15:17:00,112.27,112.37,112.27,112.37,513.0,ATR
2023-01-19 15:16:00,112.125,112.125,112.125,112.125,850.0,ATR
2023-01-19 15:15:00,112.125,112.125,112.125,112.125,1759.0,ATR
2023-01-19 15:13:00,112.08,112.08,112.08,112.08,328.0,ATR
2023-01-19 15:10:00,112.06,112.06,112.06,112.06,288.0,ATR
2023-01-19 15:09:00,112.12,112.17,112.12,112.17,210.0,ATR
2023-01-19 15:06:00,112.3,112.3,112.3,112.3,158.0,ATR
2023-01-19 15:04:00,112.27,112.27,112.27,112.27,781.0,ATR
2023-01-19 15:02:00,112.14,112.14,112.14,112.14,159.0,ATR
2023-01-19 15:01:00,112.08,112.08,112.08,112.08,389.0,ATR
2023-01-19 15:00:00,112.11,112.11,112.1,112.1,259.0,ATR
2023-01-19 14:59:00,112.15,112.15,112.15,112.15,414.0,ATR
2023-01-19 14:58:00,112.1,112.1,112.1,112.1,146.0,ATR
2023-01-19 14:57:00,112.09,112.09,112.09,112.09,448.0,ATR
2023-01-19 14:55:00,112.09,112.09,112.08,112.08,739.0,ATR
2023-01-19 14:50:00,112.2,112.2,112.2,112.2,175.0,ATR
2023-01-19 14:47:00,112.1,112.21,112.1,112.21,395.0,ATR
2023-01-19 14:46:00,112.21,112.21,112.21,112.21,243.0,ATR
2023-01-19 14:40:00,112.17,112.17,112.105,112.105,255.0,ATR
2023-01-19 14:39:00,112.2,112.2,112.2,112.2,155.0,ATR
2023-01-19 14:37:00,112.1,112.1,112.06,112.06,221.0,ATR
2023-01-19 14:36:00,112.02,112.09,112.015,112.09,1474.0,ATR
2023-01-19 14:35:00,111.92,112.02,111.92,112.02,242.0,ATR
2023-01-19 14:33:00,111.96,111.96,111.96,111.96,139.0,ATR
2023-01-19 14:31:00,111.97,111.97,111.97,111.97,652.0,ATR
2023-01-19 14:30:00,112.05,112.05,112.05,112.05,160.0,ATR
2023-01-19 14:25:00,112.09,112.09,112.08,112.08,241.0,ATR
2023-01-19 14:24:00,112.02,112.03,111.985,112.015,892.0,ATR
2023-01-19 14:23:00,111.95,111.95,111.95,111.95,362.0,ATR
2023-01-19 14:22:00,111.91,111.95,111.89,111.89,339.0,ATR
2023-01-19 14:20:00,111.9,112.01,111.86,111.86,356.0,ATR
2023-01-19 14:18:00,111.875,111.94,111.875,111.94,260.0,ATR
2023-01-19 14:14:00,111.9,111.9,111.9,111.9,375.0,ATR
2023-01-19 14:13:00,111.79,111.84,111.79,111.84,633.0,ATR
2023-01-19 14:11:00,111.73,111.73,111.73,111.73,163.0,ATR
2023-01-19 14:10:00,111.79,111.79,111.79,111.79,136.0,ATR
2023-01-19 14:09:00,111.75,111.75,111.75,111.75,181.0,ATR
2023-01-19 14:08:00,111.79,111.85,111.73,111.73,814.0,ATR
2023-01-19 14:07:00,111.86,111.865,111.8,111.8,375.0,ATR
2023-01-19 14:06:00,111.95,111.95,111.95,111.95,271.0,ATR
2023-01-19 14:03:00,111.91,111.91,111.91,111.91,247.0,ATR
2023-01-19 14:02:00,111.86,111.86,111.83,111.83,221.0,ATR
2023-01-19 14:01:00,111.96,112.01,111.9,111.9,1005.0,ATR
2023-01-19 13:58:00,112.03,112.03,112.03,112.03,123.0,ATR
2023-01-19 13:57:00,112.02,112.02,112.02,112.02,135.0,ATR
2023-01-19 13:56:00,112.01,112.01,111.95,111.97,435.0,ATR
2023-01-19 13:53:00,111.97,111.97,111.9,111.9,340.0,ATR
2023-01-19 13:50:00,112.06,112.06,112.06,112.06,207.0,ATR
2023-01-19 13:48:00,111.99,111.99,111.99,111.99,103.0,ATR
2023-01-19 13:47:00,112.08,112.08,112.0,112.0,498.0,ATR
2023-01-19 13:44:00,111.96,112.1,111.96,112.1,726.0,ATR
2023-01-19 13:43:00,112.095,112.095,112.0,112.0,693.0,ATR
2023-01-19 13:42:00,112.09,112.165,112.025,112.05,1084.0,ATR
2023-01-19 13:41:00,112.24,112.24,112.205,112.205,557.0,ATR
2023-01-19 13:38:00,112.21,112.21,112.21,112.21,238.0,ATR
2023-01-19 13:33:00,112.2,112.2,112.2,112.2,127.0,ATR
2023-01-19 13:32:00,112.2,112.2,112.2,112.2,135.0,ATR
2023-01-19 13:31:00,112.12,112.12,112.12,112.12,148.0,ATR
2023-01-19 13:26:00,112.08,112.08,112.08,112.08,141.0,ATR
2023-01-19 13:25:00,112.185,112.185,112.185,112.185,180.0,ATR
2023-01-19 13:23:00,112.15,112.15,112.15,112.15,128.0,ATR
2023-01-19 13:22:00,112.145,112.145,112.145,112.145,168.0,ATR
2023-01-19 13:20:00,111.97,112.03,111.97,112.03,1359.0,ATR
2023-01-19 13:19:00,111.97,111.97,111.97,111.97,131.0,ATR
2023-01-19 13:18:00,111.97,111.97,111.97,111.97,114.0,ATR
2023-01-19 13:13:00,111.8852,111.8852,111.8852,111.8852,247.0,ATR
2023-01-19 13:12:00,111.86,111.86,111.86,111.86,269.0,ATR
2023-01-19 13:11:00,111.98,111.98,111.98,111.98,123.0,ATR
2023-01-19 13:06:00,111.96,111.96,111.96,111.96,601.0,ATR
2023-01-19 13:05:00,112.0,112.0,112.0,112.0,101.0,ATR
2023-01-19 13:04:00,111.93,112.07,111.88,112.07,807.0,ATR
2023-01-19 13:01:00,111.85,111.93,111.76,111.93,804.0,ATR
2023-01-19 12:57:00,111.675,111.675,111.675,111.675,119.0,ATR
2023-01-19 12:52:00,111.81,111.81,111.81,111.81,538.0,ATR
2023-01-19 12:51:00,111.9,111.9,111.9,111.9,165.0,ATR
2023-01-19 12:48:00,111.95,111.95,111.95,111.95,127.0,ATR
2023-01-19 12:46:00,111.89,111.89,111.83,111.87,801.0,ATR
2023-01-19 12:42:00,111.85,111.86,111.85,111.86,326.0,ATR
2023-01-19 12:39:00,111.96,111.96,111.96,111.96,165.0,ATR
2023-01-19 12:37:00,111.95,111.97,111.95,111.97,264.0,ATR
2023-01-19 12:36:00,111.97,111.97,111.97,111.97,121.0,ATR
2023-01-19 12:33:00,111.96,111.96,111.96,111.96,131.0,ATR
2023-01-19 12:16:00,112.09,112.09,112.05,112.05,546.0,ATR
2023-01-19 12:15:00,111.96,111.96,111.96,111.96,481.0,ATR
2023-01-19 12:12:00,111.96,111.96,111.96,111.96,121.0,ATR
2023-01-19 12:10:00,111.855,111.855,111.855,111.855,169.0,ATR
2023-01-19 12:08:00,111.92,111.92,111.92,111.92,170.0,ATR
2023-01-19 12:05:00,112.02,112.02,112.02,112.02,120.0,ATR
2023-01-19 12:04:00,112.06,112.06,112.06,112.06,160.0,ATR
2023-01-19 12:03:00,112.05,112.05,112.03,112.03,457.0,ATR
2023-01-19 12:02:00,112.06,112.08,112.06,112.08,321.0,ATR
2023-01-19 12:01:00,112.0,112.005,112.0,112.005,283.0,ATR
2023-01-19 12:00:00,111.995,111.995,111.995,111.995,118.0,ATR
2023-01-19 11:59:00,111.98,112.0,111.98,112.0,352.0,ATR
2023-01-19 11:58:00,112.01,112.01,112.01,112.01,172.0,ATR
2023-01-19 11:57:00,111.92,112.02,111.92,112.02,400.0,ATR
2023-01-19 11:54:00,111.9,111.9,111.9,111.9,353.0,ATR
2023-01-19 11:52:00,111.84,111.89,111.84,111.89,330.0,ATR
2023-01-19 11:50:00,111.94,111.97,111.94,111.97,388.0,ATR
2023-01-19 11:48:00,111.81,111.81,111.81,111.81,126.0,ATR
2023-01-19 11:46:00,111.95,111.95,111.87,111.87,2815.0,ATR
2023-01-19 11:44:00,111.88,111.88,111.86,111.88,762.0,ATR
2023-01-19 11:42:00,112.04,112.04,112.04,112.04,144.0,ATR
2023-01-19 11:40:00,112.03,112.03,112.03,112.03,133.0,ATR
2023-01-19 11:39:00,112.02,112.02,112.02,112.02,188.0,ATR
2023-01-19 11:37:00,112.1,112.1,112.1,112.1,102.0,ATR
2023-01-19 11:35:00,112.16,112.16,112.11,112.12,609.0,ATR
2023-01-19 11:34:00,112.12,112.155,112.12,112.155,412.0,ATR
2023-01-19 11:33:00,112.135,112.135,112.06,112.12,2308.0,ATR
2023-01-19 11:30:00,112.22,112.225,112.14,112.14,1370.0,ATR
2023-01-19 11:29:00,112.2825,112.2825,112.2825,112.2825,117.0,ATR
2023-01-19 11:28:00,112.35,112.35,112.35,112.35,122.0,ATR
2023-01-19 11:27:00,112.11,112.16,112.11,112.16,1415.0,ATR
2023-01-19 11:24:00,112.08,112.09,112.08,112.09,486.0,ATR
2023-01-19 11:22:00,112.08,112.08,112.08,112.08,155.0,ATR
2023-01-19 11:18:00,112.08,112.08,112.08,112.08,251.0,ATR
2023-01-19 11:17:00,111.955,111.955,111.955,111.955,100.0,ATR
2023-01-19 11:16:00,111.95,112.005,111.87,111.87,907.0,ATR
2023-01-19 11:15:00,111.89,111.89,111.89,111.89,303.0,ATR
2023-01-19 11:11:00,112.03,112.06,112.03,112.06,1396.0,ATR
2023-01-19 11:10:00,111.89,111.89,111.89,111.89,215.0,ATR
2023-01-19 11:08:00,112.04,112.04,112.04,112.04,111.0,ATR
2023-01-19 11:05:00,111.895,111.895,111.895,111.895,197.0,ATR
2023-01-19 11:04:00,112.04,112.05,112.04,112.05,238.0,ATR
2023-01-19 11:03:00,112.05,112.05,112.05,112.05,140.0,ATR
2023-01-19 11:02:00,111.945,111.945,111.945,111.945,102.0,ATR
2023-01-19 11:01:00,112.05,112.05,112.05,112.05,100.0,ATR
2023-01-19 11:00:00,111.81,111.97,111.81,111.97,702.0,ATR
2023-01-19 10:59:00,111.66,111.85,111.66,111.85,635.0,ATR
2023-01-19 10:56:00,111.52,111.52,111.52,111.52,235.0,ATR
2023-01-19 10:54:00,111.565,111.565,111.565,111.565,259.0,ATR
2023-01-19 10:52:00,111.58,111.64,111.58,111.64,645.0,ATR
2023-01-19 10:50:00,111.41,111.41,111.41,111.41,154.0,ATR
2023-01-19 10:49:00,111.46,111.46,111.46,111.46,408.0,ATR
2023-01-19 10:47:00,111.3725,111.53,111.3725,111.52,963.0,ATR
2023-01-19 10:46:00,111.42,111.47,111.42,111.47,419.0,ATR
2023-01-19 10:44:00,111.47,111.47,111.47,111.47,855.0,ATR
2023-01-19 10:40:00,111.585,111.585,111.585,111.585,154.0,ATR
2023-01-19 10:39:00,111.56,111.56,111.56,111.56,641.0,ATR
2023-01-19 10:37:00,111.37,111.4,111.36,111.4,1138.0,ATR
2023-01-19 10:36:00,111.4,111.4,111.4,111.4,465.0,ATR
2023-01-19 10:35:00,111.51,111.51,111.51,111.51,241.0,ATR
2023-01-19 10:34:00,111.4875,111.4875,111.4875,111.4875,106.0,ATR
2023-01-19 10:32:00,111.43,111.43,111.43,111.43,764.0,ATR
2023-01-19 10:30:00,111.44,111.44,111.44,111.44,123.0,ATR
2023-01-19 10:29:00,111.44,111.44,111.44,111.44,141.0,ATR
2023-01-19 10:28:00,111.71,111.71,111.71,111.71,101.0,ATR
2023-01-19 10:25:00,111.565,111.565,111.565,111.565,111.0,ATR
2023-01-19 10:24:00,111.57,111.57,111.44,111.44,298.0,ATR
2023-01-19 10:22:00,111.575,111.575,111.46,111.46,360.0,ATR
2023-01-19 10:21:00,111.57,111.57,111.57,111.57,203.0,ATR
2023-01-19 10:19:00,111.12,111.52,111.12,111.52,2261.0,ATR
2023-01-19 10:18:00,111.04,111.16,111.0,111.12,3379.0,ATR
2023-01-19 10:16:00,111.26,111.26,111.26,111.26,107.0,ATR
2023-01-19 10:15:00,111.23,111.23,111.23,111.23,455.0,ATR
2023-01-19 10:13:00,111.44,111.44,111.44,111.44,1001.0,ATR
2023-01-19 10:10:00,111.57,111.57,111.57,111.57,415.0,ATR
2023-01-19 10:09:00,111.46,111.46,111.46,111.46,157.0,ATR
2023-01-19 10:08:00,111.57,111.57,111.57,111.57,107.0,ATR
2023-01-19 10:07:00,111.545,111.56,111.545,111.56,447.0,ATR
2023-01-19 10:06:00,111.49,111.49,111.49,111.49,217.0,ATR
2023-01-19 10:03:00,111.555,111.555,111.555,111.555,102.0,ATR
2023-01-19 10:02:00,111.415,111.535,111.415,111.535,551.0,ATR
2023-01-19 09:58:00,111.505,111.505,111.34,111.34,251.0,ATR
2023-01-19 09:57:00,111.505,111.505,111.505,111.505,150.0,ATR
2023-01-19 09:56:00,111.51,111.51,111.51,111.51,351.0,ATR
2023-01-19 09:55:00,111.485,111.485,111.485,111.485,164.0,ATR
2023-01-19 09:54:00,111.68,111.68,111.68,111.68,224.0,ATR
2023-01-19 09:53:00,111.35,111.405,111.35,111.405,305.0,ATR
2023-01-19 09:52:00,111.58,111.7,111.48,111.7,1262.0,ATR
2023-01-19 09:48:00,111.66,111.66,111.66,111.66,100.0,ATR
2023-01-19 09:47:00,111.51,111.51,111.51,111.51,114.0,ATR
2023-01-19 09:46:00,111.75,111.75,111.75,111.75,242.0,ATR
2023-01-19 09:44:00,111.74,111.74,111.74,111.74,195.0,ATR
2023-01-19 09:42:00,111.98,112.0,111.96,111.96,1137.0,ATR
2023-01-19 09:41:00,111.66,111.99,111.66,111.99,450.0,ATR
2023-01-19 09:40:00,111.66,111.68,111.57,111.57,826.0,ATR
2023-01-19 09:39:00,111.42,111.42,111.29,111.29,365.0,ATR
2023-01-19 09:38:00,111.255,111.255,111.255,111.255,210.0,ATR
2023-01-19 09:35:00,111.095,111.19,111.095,111.19,302.0,ATR
2023-01-19 09:34:00,111.075,111.075,111.075,111.075,102.0,ATR
2023-01-19 09:33:00,111.54,111.54,111.075,111.3715,517.0,ATR
2023-01-19 09:32:00,111.005,111.005,111.005,111.005,102.0,ATR
2023-01-19 09:31:00,111.59,111.59,110.33,111.13,3859.0,ATR
2023-01-18 16:02:00,111.97,111.97,111.97,111.97,346.0,ATR
2023-01-18 16:01:00,111.97,111.97,111.97,111.97,2106.0,ATR
2023-01-18 16:00:00,111.97,112.02,111.92,111.98,2801.0,ATR
2023-01-18 15:59:00,112.02,112.05,112.01,112.01,2042.0,ATR
2023-01-18 15:58:00,112.02,112.02,111.99,111.99,510.0,ATR
2023-01-18 15:57:00,112.13,112.13,112.03,112.03,1157.0,ATR
2023-01-18 15:56:00,112.235,112.235,112.2,112.2,1195.0,ATR
2023-01-18 15:54:00,112.225,112.24,112.18,112.22,1283.0,ATR
2023-01-18 15:52:00,112.25,112.25,112.22,112.22,1067.0,ATR
2023-01-18 15:51:00,112.2,112.21,112.2,112.21,747.0,ATR
2023-01-18 15:49:00,112.19,112.19,112.19,112.19,514.0,ATR
2023-01-18 15:47:00,112.21,112.24,112.21,112.24,914.0,ATR
2023-01-18 15:45:00,112.19,112.22,112.165,112.165,774.0,ATR
2023-01-18 15:40:00,112.24,112.24,112.24,112.24,126.0,ATR
2023-01-18 15:39:00,112.3,112.3,112.3,112.3,392.0,ATR
2023-01-18 15:38:00,112.34,112.34,112.34,112.34,640.0,ATR
2023-01-18 15:37:00,112.3,112.31,112.3,112.31,511.0,ATR
2023-01-18 15:32:00,112.36,112.37,112.36,112.37,410.0,ATR
2023-01-18 15:25:00,112.445,112.445,112.44,112.44,293.0,ATR
2023-01-18 15:22:00,112.69,112.69,112.44,112.44,2963.0,ATR
2023-01-18 15:21:00,112.69,112.69,112.69,112.69,238.0,ATR
2023-01-18 15:20:00,112.57,112.57,112.57,112.57,100.0,ATR
2023-01-18 15:17:00,112.68,112.68,112.66,112.66,897.0,ATR
2023-01-18 15:16:00,112.75,112.765,112.75,112.765,415.0,ATR
2023-01-18 15:15:00,112.8,112.8,112.73,112.74,875.0,ATR
2023-01-18 15:14:00,112.69,112.77,112.69,112.75,2575.0,ATR
2023-01-18 15:13:00,112.67,112.67,112.67,112.67,11296.0,ATR
2023-01-18 15:11:00,112.63,112.63,112.63,112.63,500.0,ATR
2023-01-18 15:09:00,112.58,112.58,112.58,112.58,101.0,ATR
2023-01-18 15:08:00,112.515,112.515,112.515,112.515,396.0,ATR
2023-01-18 15:01:00,112.66,112.66,112.66,112.66,279.0,ATR
2023-01-18 15:00:00,112.69,112.69,112.69,112.69,142.0,ATR
2023-01-18 14:59:00,112.69,112.69,112.69,112.69,103.0,ATR
2023-01-18 14:57:00,112.74,112.74,112.74,112.74,198.0,ATR
2023-01-18 14:54:00,112.78,112.78,112.78,112.78,112.0,ATR
2023-01-18 14:45:00,112.74,112.76,112.74,112.76,766.0,ATR
2023-01-18 14:43:00,112.72,112.72,112.72,112.72,492.0,ATR
2023-01-18 14:42:00,112.72,112.72,112.72,112.72,210.0,ATR
2023-01-18 14:29:00,112.895,112.895,112.895,112.895,146.0,ATR
2023-01-18 14:24:00,112.9,112.98,112.9,112.98,776.0,ATR
2023-01-18 14:20:00,112.87,112.87,112.87,112.87,127.0,ATR
2023-01-18 14:12:00,113.02,113.02,113.02,113.02,139.0,ATR
2023-01-18 14:06:00,113.11,113.11,113.11,113.11,102.0,ATR
2023-01-18 14:04:00,113.18,113.18,113.18,113.18,320.0,ATR
2023-01-18 14:03:00,113.14,113.14,113.14,113.14,524.0,ATR
2023-01-18 14:02:00,113.22,113.22,113.18,113.18,722.0,ATR
2023-01-18 13:58:00,113.25,113.25,113.25,113.25,219.0,ATR
2023-01-18 13:57:00,113.19,113.19,113.19,113.19,262.0,ATR
2023-01-18 13:56:00,113.26,113.29,113.255,113.255,688.0,ATR
2023-01-18 13:54:00,113.37,113.37,113.37,113.37,273.0,ATR
2023-01-18 13:45:00,113.27,113.34,113.27,113.32,1081.0,ATR
2023-01-18 13:41:00,113.21,113.21,113.21,113.21,436.0,ATR
2023-01-18 13:39:00,113.2,113.21,113.2,113.21,363.0,ATR
2023-01-18 13:37:00,113.105,113.13,113.105,113.12,787.0,ATR
2023-01-18 13:34:00,113.03,113.08,113.03,113.08,899.0,ATR
2023-01-18 13:33:00,112.93,112.93,112.91,112.91,302.0,ATR
2023-01-18 13:32:00,112.93,112.93,112.93,112.93,201.0,ATR
2023-01-18 13:31:00,112.83,112.86,112.83,112.85,744.0,ATR
2023-01-18 13:30:00,112.83,112.83,112.83,112.83,238.0,ATR
2023-01-18 13:29:00,112.75,112.75,112.75,112.75,413.0,ATR
2023-01-18 13:27:00,112.46,112.55,112.46,112.55,823.0,ATR
2023-01-18 13:22:00,112.48,112.49,112.48,112.49,619.0,ATR
2023-01-18 13:21:00,112.4746,112.4746,112.38,112.38,1198.0,ATR
2023-01-18 13:13:00,112.47,112.47,112.47,112.47,114.0,ATR
2023-01-18 13:11:00,112.75,112.75,112.75,112.75,309.0,ATR
2023-01-18 13:04:00,112.76,112.78,112.75,112.76,1313.0,ATR
2023-01-18 13:02:00,112.82,112.82,112.82,112.82,107.0,ATR
2023-01-18 13:00:00,112.8,112.8,112.8,112.8,105.0,ATR
2023-01-18 12:56:00,112.77,112.77,112.7,112.7,381.0,ATR
2023-01-18 12:32:00,112.945,112.945,112.945,112.945,143.0,ATR
2023-01-18 12:27:00,113.03,113.03,113.03,113.03,326.0,ATR
2023-01-18 12:26:00,113.07,113.07,113.07,113.07,336.0,ATR
2023-01-18 12:23:00,113.1,113.1,113.1,113.1,466.0,ATR
2023-01-18 12:21:00,113.01,113.01,113.01,113.01,118.0,ATR
2023-01-18 12:15:00,113.1,113.1,113.1,113.1,143.0,ATR
2023-01-18 12:03:00,113.24,113.24,113.24,113.24,121.0,ATR
2023-01-18 12:01:00,113.22,113.22,113.22,113.22,307.0,ATR
2023-01-18 11:58:00,113.09,113.15,113.09,113.15,864.0,ATR
2023-01-18 11:56:00,113.03,113.03,112.87,112.87,843.0,ATR
2023-01-18 11:55:00,113.03,113.03,113.01,113.02,316.0,ATR
2023-01-18 11:54:00,113.03,113.03,113.03,113.03,100.0,ATR
2023-01-18 11:53:00,113.03,113.03,113.03,113.03,124.0,ATR
2023-01-18 11:51:00,113.0,113.03,113.0,113.03,346.0,ATR
2023-01-18 11:49:00,113.1,113.1,113.1,113.1,211.0,ATR
2023-01-18 11:47:00,113.09,113.09,113.09,113.09,176.0,ATR
2023-01-18 11:45:00,113.27,113.295,113.14,113.14,380.0,ATR
2023-01-18 11:44:00,113.38,113.38,113.36,113.36,353.0,ATR
2023-01-18 11:43:00,113.36,113.36,113.36,113.36,252.0,ATR
2023-01-18 11:39:00,113.52,113.52,113.52,113.52,101.0,ATR
2023-01-18 11:38:00,113.52,113.52,113.52,113.52,258.0,ATR
2023-01-18 11:37:00,113.54,113.61,113.5,113.61,1759.0,ATR
2023-01-18 11:36:00,113.46,113.46,113.46,113.46,145.0,ATR
2023-01-18 11:34:00,113.46,113.46,113.46,113.46,251.0,ATR
2023-01-18 11:30:00,113.5,113.5,113.5,113.5,100.0,ATR
2023-01-18 11:22:00,113.37,113.37,113.37,113.37,130.0,ATR
2023-01-18 11:21:00,113.49,113.49,113.49,113.49,145.0,ATR
2023-01-18 11:18:00,113.49,113.55,113.44,113.55,1053.0,ATR
2023-01-18 11:17:00,113.55,113.56,113.51,113.51,1365.0,ATR
2023-01-18 11:16:00,113.5,113.5,113.5,113.5,203.0,ATR
2023-01-18 11:11:00,113.52,113.52,113.52,113.52,101.0,ATR
2023-01-18 10:55:00,113.91,113.91,113.91,113.91,187.0,ATR
2023-01-18 10:54:00,113.96,113.9607,113.96,113.9607,578.0,ATR
2023-01-18 10:46:00,114.002,114.002,114.002,114.002,737.0,ATR
2023-01-18 10:45:00,114.1,114.1,114.1,114.1,238.0,ATR
2023-01-18 10:32:00,114.39,114.39,114.15,114.15,963.0,ATR
2023-01-18 10:30:00,114.48,114.48,114.48,114.48,169.0,ATR
2023-01-18 10:29:00,114.44,114.44,114.44,114.44,101.0,ATR
2023-01-18 10:16:00,114.38,114.6,114.38,114.6,871.0,ATR
2023-01-18 10:13:00,114.175,114.175,114.175,114.175,175.0,ATR
2023-01-18 10:10:00,114.24,114.24,114.24,114.24,232.0,ATR
2023-01-18 10:05:00,114.17,114.39,114.16,114.39,3056.0,ATR
2023-01-18 09:50:00,114.17,114.17,114.17,114.17,100.0,ATR
2023-01-18 09:45:00,114.59,114.59,114.405,114.56,1055.0,ATR
2023-01-18 09:43:00,114.58,114.58,114.58,114.58,132.0,ATR
2023-01-18 09:31:00,114.49,114.49,114.49,114.49,1293.0,ATR
2023-01-17 16:02:00,114.06,114.06,114.06,114.06,547.0,ATR
2023-01-17 16:01:00,114.06,114.06,114.06,114.06,3065.0,ATR
2023-01-17 16:00:00,113.959,114.07,113.94,114.07,9066.0,ATR
2023-01-17 15:59:00,113.93,113.96,113.9,113.92,4887.0,ATR
2023-01-17 15:58:00,113.91,113.93,113.9,113.91,5413.0,ATR
2023-01-17 15:57:00,113.925,113.925,113.86,113.89,2745.0,ATR
2023-01-17 15:56:00,113.91,113.96,113.89,113.925,2363.0,ATR
2023-01-17 15:55:00,113.82,113.88,113.82,113.845,1472.0,ATR
2023-01-17 15:54:00,113.87,113.91,113.84,113.865,1566.0,ATR
2023-01-17 15:53:00,113.93,113.93,113.83,113.89,1569.0,ATR
2023-01-17 15:52:00,113.88,113.93,113.86,113.93,1143.0,ATR
2023-01-17 15:51:00,113.72,113.855,113.71,113.855,2974.0,ATR
2023-01-17 15:50:00,113.845,113.845,113.71,113.71,1080.0,ATR
2023-01-17 15:49:00,113.86,113.87,113.845,113.87,1475.0,ATR
2023-01-17 15:48:00,113.88,113.88,113.86,113.86,2523.0,ATR
2023-01-17 15:47:00,113.91,113.91,113.91,113.91,644.0,ATR
2023-01-17 15:46:00,113.92,113.944,113.92,113.944,802.0,ATR
2023-01-17 15:45:00,113.93,113.98,113.93,113.98,656.0,ATR
2023-01-17 15:44:00,113.94,113.945,113.91,113.945,1738.0,ATR
2023-01-17 15:42:00,113.97,113.97,113.97,113.97,5947.0,ATR
2023-01-17 15:41:00,114.015,114.04,113.98,113.98,1957.0,ATR
2023-01-17 15:40:00,114.04,114.04,114.04,114.04,545.0,ATR
2023-01-17 15:39:00,114.04,114.04,114.04,114.04,155.0,ATR
2023-01-17 15:38:00,114.04,114.04,113.96,113.96,688.0,ATR
2023-01-17 15:37:00,114.06,114.06,114.04,114.04,359.0,ATR
2023-01-17 15:35:00,113.98,113.98,113.98,113.98,296.0,ATR
2023-01-17 15:34:00,113.975,113.975,113.84,113.84,1430.0,ATR
2023-01-17 15:33:00,113.7,114.11,113.66,114.01,12646.0,ATR
2023-01-17 15:32:00,113.77,113.77,113.77,113.77,384.0,ATR
2023-01-17 15:31:00,113.77,113.87,113.77,113.82,2128.0,ATR
2023-01-17 15:28:00,113.85,113.85,113.73,113.73,2179.0,ATR
2023-01-17 15:27:00,113.885,113.885,113.885,113.885,210.0,ATR
2023-01-17 15:26:00,113.85,113.9,113.84,113.9,2660.0,ATR
2023-01-17 15:25:00,113.815,113.815,113.795,113.795,729.0,ATR
2023-01-17 15:24:00,113.785,113.8,113.785,113.8,854.0,ATR
2023-01-17 15:23:00,113.75,113.81,113.75,113.81,1154.0,ATR
2023-01-17 15:22:00,113.69,113.725,113.69,113.725,904.0,ATR
2023-01-17 15:21:00,113.66,113.72,113.66,113.72,477.0,ATR
2023-01-17 15:17:00,113.62,113.65,113.62,113.65,622.0,ATR
2023-01-17 15:13:00,113.57,113.57,113.57,113.57,131.0,ATR
2023-01-17 15:12:00,113.66,113.66,113.64,113.64,452.0,ATR
2023-01-17 15:11:00,113.71,113.71,113.71,113.71,138.0,ATR
2023-01-17 15:10:00,113.75,113.75,113.75,113.75,128.0,ATR
2023-01-17 15:09:00,113.75,113.75,113.75,113.75,123.0,ATR
2023-01-17 15:07:00,113.84,113.84,113.75,113.755,1842.0,ATR
2023-01-17 15:06:00,113.84,113.895,113.84,113.87,743.0,ATR
2023-01-17 15:04:00,113.835,113.895,113.835,113.895,686.0,ATR
2023-01-17 15:02:00,113.83,113.83,113.83,113.83,293.0,ATR
2023-01-17 14:59:00,113.79,113.79,113.79,113.79,247.0,ATR
2023-01-17 14:56:00,113.74,113.74,113.74,113.74,271.0,ATR
2023-01-17 14:54:00,113.75,113.75,113.75,113.75,120.0,ATR
2023-01-17 14:52:00,113.715,113.715,113.715,113.715,120.0,ATR
2023-01-17 14:48:00,113.66,113.66,113.59,113.65,1033.0,ATR
2023-01-17 14:47:00,113.6578,113.6578,113.6578,113.6578,151.0,ATR
2023-01-17 14:45:00,113.68,113.68,113.68,113.68,247.0,ATR
2023-01-17 14:44:00,113.55,113.61,113.55,113.61,676.0,ATR
2023-01-17 14:43:00,113.51,113.54,113.48,113.5,2441.0,ATR
2023-01-17 14:40:00,113.58,113.58,113.52,113.52,261.0,ATR
2023-01-17 14:39:00,113.52,113.53,113.52,113.53,238.0,ATR
2023-01-17 14:38:00,113.57,113.57,113.57,113.57,111.0,ATR
2023-01-17 14:37:00,113.59,113.59,113.59,113.59,158.0,ATR
2023-01-17 14:35:00,113.35,113.465,113.35,113.465,746.0,ATR
2023-01-17 14:31:00,113.33,113.33,113.33,113.33,320.0,ATR
2023-01-17 14:30:00,113.17,113.25,113.17,113.25,6715.0,ATR
2023-01-17 14:25:00,113.22,113.22,113.22,113.22,375.0,ATR
2023-01-17 14:22:00,113.24,113.24,113.24,113.24,369.0,ATR
2023-01-17 14:21:00,113.32,113.32,113.26,113.26,698.0,ATR
2023-01-17 14:20:00,113.31,113.31,113.31,113.31,354.0,ATR
2023-01-17 14:17:00,113.28,113.28,113.28,113.28,263.0,ATR
2023-01-17 14:16:00,113.3,113.3,113.25,113.3,1277.0,ATR
2023-01-17 14:15:00,113.31,113.35,113.31,113.34,983.0,ATR
2023-01-17 14:14:00,113.34,113.34,113.34,113.34,397.0,ATR
2023-01-17 14:10:00,113.39,113.39,113.39,113.39,583.0,ATR
2023-01-17 14:04:00,113.44,113.44,113.44,113.44,477.0,ATR
2023-01-17 13:57:00,113.4,113.4,113.4,113.4,338.0,ATR
2023-01-17 13:56:00,113.49,113.49,113.44,113.44,526.0,ATR
2023-01-17 13:52:00,113.59,113.59,113.59,113.59,286.0,ATR
2023-01-17 13:50:00,113.55,113.55,113.52,113.52,480.0,ATR
2023-01-17 13:46:00,113.52,113.52,113.52,113.52,874.0,ATR
2023-01-17 13:44:00,113.59,113.59,113.59,113.59,568.0,ATR
2023-01-17 13:43:00,113.59,113.605,113.59,113.605,393.0,ATR
2023-01-17 13:37:00,113.48,113.48,113.48,113.48,398.0,ATR
2023-01-17 13:36:00,113.2719,113.2719,113.2719,113.2719,357.0,ATR
2023-01-17 13:34:00,113.36,113.36,113.36,113.36,847.0,ATR
2023-01-17 13:24:00,113.31,113.31,113.31,113.31,118.0,ATR
2023-01-17 13:14:00,113.42,113.5102,113.42,113.5102,391.0,ATR
2023-01-17 13:13:00,113.42,113.42,113.42,113.42,831.0,ATR
2023-01-17 13:12:00,113.3615,113.39,113.275,113.275,1026.0,ATR
2023-01-17 13:09:00,113.4415,113.4415,113.4415,113.4415,223.0,ATR
2023-01-17 13:07:00,113.5359,113.56,113.5359,113.56,454.0,ATR
2023-01-17 13:05:00,113.5,113.58,113.5,113.58,427.0,ATR
2023-01-17 13:03:00,113.5695,113.5695,113.5695,113.5695,129.0,ATR
2023-01-17 13:02:00,113.46,113.46,113.46,113.46,110.0,ATR
2023-01-17 13:01:00,113.51,113.51,113.51,113.51,231.0,ATR
2023-01-17 13:00:00,113.56,113.56,113.56,113.56,129.0,ATR
2023-01-17 12:59:00,113.535,113.55,113.535,113.55,490.0,ATR
2023-01-17 12:58:00,113.43,113.43,113.42,113.42,474.0,ATR
2023-01-17 12:52:00,113.35,113.44,113.35,113.44,1198.0,ATR
2023-01-17 12:50:00,113.34,113.34,113.34,113.34,383.0,ATR
2023-01-17 12:46:00,113.37,113.37,113.37,113.37,142.0,ATR
2023-01-17 12:41:00,113.2986,113.2986,113.2986,113.2986,304.0,ATR
2023-01-17 12:40:00,113.35,113.35,113.35,113.35,451.0,ATR
2023-01-17 12:35:00,113.37,113.37,113.37,113.37,240.0,ATR
2023-01-17 12:32:00,113.21,113.315,113.21,113.315,2084.0,ATR
2023-01-17 12:31:00,113.2199,113.2199,113.2199,113.2199,150.0,ATR
2023-01-17 12:24:00,113.35,113.35,113.28,113.28,1089.0,ATR
2023-01-17 12:15:00,113.41,113.41,113.41,113.41,223.0,ATR
2023-01-17 12:13:00,113.36,113.36,113.36,113.36,100.0,ATR
2023-01-17 12:11:00,113.3999,113.3999,113.3999,113.3999,124.0,ATR
2023-01-17 12:09:00,113.27,113.27,113.27,113.27,160.0,ATR
2023-01-17 12:07:00,113.19,113.32,113.19,113.32,1379.0,ATR
2023-01-17 12:06:00,113.21,113.22,113.16,113.18,3743.0,ATR
2023-01-17 12:05:00,113.155,113.155,113.15,113.15,467.0,ATR
2023-01-17 12:02:00,113.15,113.15,113.15,113.15,117.0,ATR
2023-01-17 12:01:00,113.15,113.22,113.135,113.22,643.0,ATR
2023-01-17 11:51:00,113.04,113.04,113.04,113.04,455.0,ATR
2023-01-17 11:46:00,112.9482,112.9482,112.9482,112.9482,453.0,ATR
2023-01-17 11:42:00,112.83,112.83,112.83,112.83,248.0,ATR
2023-01-17 11:38:00,112.91,112.91,112.91,112.91,260.0,ATR
2023-01-17 11:36:00,113.01,113.01,112.97,112.97,813.0,ATR
2023-01-17 11:35:00,112.97,112.97,112.97,112.97,422.0,ATR
2023-01-17 11:32:00,113.11,113.11,113.11,113.11,303.0,ATR
2023-01-17 11:31:00,113.02,113.17,113.02,113.02,2194.0,ATR
2023-01-17 11:29:00,113.12,113.22,113.02,113.02,1377.0,ATR
2023-01-17 11:27:00,112.945,112.945,112.945,112.945,141.0,ATR
2023-01-17 11:24:00,113.42,113.42,113.06,113.06,3669.0,ATR
2023-01-17 11:20:00,113.445,113.61,113.445,113.54,5126.0,ATR
2023-01-17 11:15:00,113.42,113.42,113.42,113.42,501.0,ATR
2023-01-17 11:12:00,113.54,113.54,113.465,113.465,1001.0,ATR
2023-01-17 11:06:00,113.625,113.625,113.625,113.625,297.0,ATR
2023-01-17 11:05:00,113.625,113.625,113.625,113.625,170.0,ATR
2023-01-17 11:04:00,113.5318,113.67,113.5318,113.67,811.0,ATR
2023-01-17 11:01:00,113.69,113.69,113.545,113.685,507.0,ATR
2023-01-17 11:00:00,113.67,113.695,113.56,113.695,723.0,ATR
2023-01-17 10:59:00,113.85,113.85,113.7,113.7,2107.0,ATR
2023-01-17 10:58:00,113.8,113.8,113.8,113.8,534.0,ATR
2023-01-17 10:43:00,114.0,114.0,113.94,113.94,520.0,ATR
2023-01-17 10:42:00,114.12,114.12,114.0,114.0,941.0,ATR
2023-01-17 10:41:00,114.12,114.12,114.12,114.12,125.0,ATR
2023-01-17 10:40:00,114.155,114.155,114.03,114.03,1947.0,ATR
2023-01-17 10:39:00,114.155,114.155,114.155,114.155,359.0,ATR
2023-01-17 10:38:00,114.155,114.155,114.155,114.155,502.0,ATR
2023-01-17 10:36:00,114.215,114.215,114.215,114.215,170.0,ATR
2023-01-17 10:28:00,114.225,114.225,114.21,114.21,322.0,ATR
2023-01-17 10:26:00,114.27,114.29,114.27,114.29,424.0,ATR
2023-01-17 10:24:00,114.12,114.17,114.09,114.11,942.0,ATR
2023-01-17 10:22:00,114.22,114.25,114.22,114.25,844.0,ATR
2023-01-17 10:20:00,114.1057,114.1057,114.1057,114.1057,707.0,ATR
2023-01-17 10:18:00,114.27,114.27,114.27,114.27,101.0,ATR
2023-01-17 10:15:00,114.1,114.205,114.1,114.195,623.0,ATR
2023-01-17 10:07:00,114.27,114.3,114.27,114.3,684.0,ATR
2023-01-17 10:06:00,114.2663,114.2663,114.2663,114.2663,277.0,ATR
2023-01-17 10:05:00,114.33,114.37,114.23,114.23,1341.0,ATR
2023-01-17 10:04:00,114.37,114.53,114.37,114.53,505.0,ATR
2023-01-17 10:03:00,114.34,114.34,114.34,114.34,424.0,ATR
2023-01-17 10:01:00,114.09,114.15,114.03,114.03,1661.0,ATR
2023-01-17 09:54:00,113.79,113.79,113.79,113.79,158.0,ATR
2023-01-17 09:51:00,113.83,113.83,113.83,113.83,100.0,ATR
2023-01-17 09:50:00,113.83,113.83,113.83,113.83,179.0,ATR
2023-01-17 09:49:00,113.83,113.83,113.83,113.83,109.0,ATR
2023-01-17 09:42:00,113.915,113.915,113.915,113.915,301.0,ATR
2023-01-17 09:37:00,114.5,114.5,114.5,114.5,128.0,ATR
2023-01-17 09:31:00,114.18,114.18,114.18,114.18,1174.0,ATR
