date,1. open,2. high,3. low,4. close,5. volume,Ticker
2023-05-19 16:00:00,119.09,119.09,119.09,119.09,2115.0,ATR
2023-05-19 15:59:00,119.021,119.11,118.98,119.09,11050.0,ATR
2023-05-19 15:58:00,119.01,119.05,119.0,119.02,1984.0,ATR
2023-05-19 15:57:00,119.08,119.08,118.98,119.0,2931.0,ATR
2023-05-19 15:56:00,118.95,119.06,118.95,119.06,2730.0,ATR
2023-05-19 15:55:00,118.94,118.97,118.92,118.955,3168.0,ATR
2023-05-19 15:54:00,118.93,118.97,118.93,118.97,1083.0,ATR
2023-05-19 15:53:00,118.95,118.95,118.95,118.95,1716.0,ATR
2023-05-19 15:52:00,118.88,118.95,118.87,118.95,854.0,ATR
2023-05-19 15:51:00,118.79,118.84,118.79,118.84,2438.0,ATR
2023-05-19 15:50:00,118.93,118.93,118.83,118.83,2090.0,ATR
2023-05-19 15:49:00,119.07,119.07,118.93,118.93,3917.0,ATR
2023-05-19 15:48:00,118.97,118.98,118.97,118.98,1050.0,ATR
2023-05-19 15:47:00,118.93,118.97,118.93,118.97,783.0,ATR
2023-05-19 15:46:00,118.97,118.97,118.965,118.965,440.0,ATR
2023-05-19 15:45:00,118.98,119.005,118.97,118.97,716.0,ATR
2023-05-19 15:43:00,119.0,119.0,119.0,119.0,733.0,ATR
2023-05-19 15:42:00,118.95,118.95,118.95,118.95,586.0,ATR
2023-05-19 15:41:00,118.9,118.97,118.9,118.955,3004.0,ATR
2023-05-19 15:40:00,118.9,118.9,118.9,118.9,276.0,ATR
2023-05-19 15:39:00,118.93,118.93,118.89,118.89,742.0,ATR
2023-05-19 15:38:00,118.935,118.945,118.921,118.921,983.0,ATR
2023-05-19 15:37:00,118.9,118.92,118.9,118.915,789.0,ATR
2023-05-19 15:36:00,118.85,118.86,118.85,118.86,374.0,ATR
2023-05-19 15:34:00,118.84,118.84,118.84,118.84,236.0,ATR
2023-05-19 15:33:00,118.78,118.84,118.78,118.815,963.0,ATR
2023-05-19 15:26:00,118.81,118.81,118.81,118.81,431.0,ATR
2023-05-19 15:24:00,118.84,118.9,118.84,118.9,778.0,ATR
2023-05-19 15:23:00,118.8,118.805,118.8,118.805,309.0,ATR
2023-05-19 15:22:00,118.78,118.83,118.78,118.83,1416.0,ATR
2023-05-19 15:21:00,118.72,118.72,118.72,118.72,456.0,ATR
2023-05-19 15:15:00,118.87,118.87,118.86,118.86,310.0,ATR
2023-05-19 15:14:00,118.88,118.88,118.88,118.88,376.0,ATR
2023-05-19 15:11:00,118.87,118.87,118.87,118.87,187.0,ATR
2023-05-19 15:10:00,118.84,118.86,118.84,118.86,1013.0,ATR
2023-05-19 15:04:00,118.79,118.79,118.79,118.79,274.0,ATR
2023-05-19 15:02:00,118.915,118.915,118.85,118.85,551.0,ATR
2023-05-19 14:56:00,118.91,118.91,118.91,118.91,105.0,ATR
2023-05-19 14:53:00,118.91,118.91,118.91,118.91,111.0,ATR
2023-05-19 14:52:00,118.9299,118.9299,118.9,118.9,532.0,ATR
2023-05-19 14:50:00,118.83,118.83,118.83,118.83,1380.0,ATR
2023-05-19 14:46:00,118.81,118.81,118.8,118.8,393.0,ATR
2023-05-19 14:41:00,118.87,118.87,118.87,118.87,113.0,ATR
2023-05-19 14:39:00,118.85,118.86,118.85,118.86,670.0,ATR
2023-05-19 14:34:00,118.76,118.76,118.76,118.76,295.0,ATR
2023-05-19 14:27:00,118.83,118.83,118.79,118.79,861.0,ATR
2023-05-19 14:24:00,118.93,118.93,118.93,118.93,163.0,ATR
2023-05-19 14:20:00,118.915,118.915,118.915,118.915,171.0,ATR
2023-05-19 14:19:00,118.88,118.88,118.88,118.88,610.0,ATR
2023-05-19 14:18:00,118.88,118.88,118.88,118.88,115.0,ATR
2023-05-19 14:14:00,118.75,118.75,118.75,118.75,101.0,ATR
2023-05-19 14:10:00,118.82,118.82,118.82,118.82,538.0,ATR
2023-05-19 14:05:00,118.87,118.87,118.87,118.87,462.0,ATR
2023-05-19 14:03:00,118.8,118.8,118.8,118.8,694.0,ATR
2023-05-19 14:01:00,118.76,118.76,118.75,118.75,291.0,ATR
2023-05-19 13:59:00,118.8,118.84,118.8,118.84,521.0,ATR
2023-05-19 13:56:00,118.89,118.89,118.89,118.89,164.0,ATR
2023-05-19 13:49:00,118.87,118.87,118.87,118.87,477.0,ATR
2023-05-19 13:48:00,118.9267,118.9267,118.9267,118.9267,670.0,ATR
2023-05-19 13:47:00,118.955,118.955,118.955,118.955,124.0,ATR
2023-05-19 13:32:00,118.905,118.905,118.905,118.905,173.0,ATR
2023-05-19 13:30:00,118.92,118.92,118.9,118.9,574.0,ATR
2023-05-19 13:28:00,118.84,118.85,118.84,118.845,1554.0,ATR
2023-05-19 13:27:00,118.85,118.85,118.85,118.85,619.0,ATR
2023-05-19 13:26:00,118.94,118.98,118.925,118.96,1065.0,ATR
2023-05-19 13:12:00,118.81,118.81,118.81,118.81,100.0,ATR
2023-05-19 13:01:00,118.79,118.9,118.79,118.9,1250.0,ATR
2023-05-19 13:00:00,118.765,118.765,118.69,118.69,240.0,ATR
2023-05-19 12:59:00,118.94,118.94,118.825,118.825,1846.0,ATR
2023-05-19 12:57:00,118.94,118.94,118.94,118.94,144.0,ATR
2023-05-19 12:56:00,118.97,118.97,118.94,118.94,418.0,ATR
2023-05-19 12:55:00,118.97,118.97,118.97,118.97,167.0,ATR
2023-05-19 12:52:00,119.0,119.0,119.0,119.0,106.0,ATR
2023-05-19 12:50:00,119.005,119.005,119.005,119.005,218.0,ATR
2023-05-19 12:49:00,118.91,118.96,118.84,118.96,856.0,ATR
2023-05-19 12:46:00,118.84,118.84,118.84,118.84,120.0,ATR
2023-05-19 12:43:00,118.78,118.78,118.78,118.78,108.0,ATR
2023-05-19 12:42:00,118.75,118.75,118.75,118.75,201.0,ATR
2023-05-19 12:41:00,118.75,118.75,118.75,118.75,207.0,ATR
2023-05-19 12:35:00,118.705,118.7125,118.705,118.7125,330.0,ATR
2023-05-19 12:34:00,118.64,118.64,118.64,118.64,285.0,ATR
2023-05-19 12:33:00,118.6,118.6,118.6,118.6,117.0,ATR
2023-05-19 12:29:00,118.875,118.875,118.875,118.875,112.0,ATR
2023-05-19 12:26:00,118.66,118.82,118.64,118.795,2282.0,ATR
2023-05-19 12:25:00,118.77,118.77,118.77,118.77,171.0,ATR
2023-05-19 12:19:00,118.76,118.76,118.76,118.76,120.0,ATR
2023-05-19 12:18:00,118.75,118.75,118.71,118.71,598.0,ATR
2023-05-19 12:16:00,118.705,118.81,118.705,118.76,614.0,ATR
2023-05-19 12:15:00,118.74,118.74,118.74,118.74,650.0,ATR
2023-05-19 12:14:00,118.75,118.75,118.75,118.75,118.0,ATR
2023-05-19 12:13:00,118.875,118.875,118.875,118.875,128.0,ATR
2023-05-19 12:08:00,118.875,118.875,118.875,118.875,295.0,ATR
2023-05-19 12:04:00,118.875,118.875,118.875,118.875,107.0,ATR
2023-05-19 12:03:00,118.805,118.805,118.805,118.805,105.0,ATR
2023-05-19 11:56:00,118.825,118.97,118.825,118.95,1255.0,ATR
2023-05-19 11:52:00,118.84,118.84,118.84,118.84,116.0,ATR
2023-05-19 11:51:00,118.84,118.84,118.84,118.84,107.0,ATR
2023-05-19 11:50:00,118.84,118.84,118.84,118.84,115.0,ATR
2023-05-19 11:49:00,118.84,118.84,118.84,118.84,321.0,ATR
2023-05-19 11:47:00,118.84,118.84,118.84,118.84,102.0,ATR
2023-05-19 11:42:00,118.87,118.87,118.73,118.73,937.0,ATR
2023-05-19 11:41:00,118.725,118.92,118.725,118.86,1290.0,ATR
2023-05-19 11:40:00,118.715,118.715,118.715,118.715,271.0,ATR
2023-05-19 11:39:00,118.85,118.85,118.71,118.81,1731.0,ATR
2023-05-19 11:38:00,118.85,118.86,118.85,118.86,466.0,ATR
2023-05-19 11:34:00,118.975,118.975,118.975,118.975,110.0,ATR
2023-05-19 11:31:00,119.1675,119.1675,119.165,119.1675,361.0,ATR
2023-05-19 11:30:00,119.1575,119.16,119.1575,119.1575,422.0,ATR
2023-05-19 11:25:00,119.37,119.37,119.36,119.36,214.0,ATR
2023-05-19 11:22:00,119.495,119.495,119.495,119.495,121.0,ATR
2023-05-19 11:21:00,119.51,119.51,119.51,119.51,506.0,ATR
2023-05-19 11:19:00,119.35,119.35,119.35,119.35,328.0,ATR
2023-05-19 11:18:00,119.4043,119.4043,119.4043,119.4043,331.0,ATR
2023-05-19 11:17:00,119.51,119.51,119.51,119.51,101.0,ATR
2023-05-19 11:09:00,119.72,119.72,119.72,119.72,314.0,ATR
2023-05-19 11:04:00,119.89,119.89,119.89,119.89,151.0,ATR
2023-05-19 11:00:00,119.737,119.737,119.737,119.737,700.0,ATR
2023-05-19 10:57:00,119.84,119.84,119.83,119.83,453.0,ATR
2023-05-19 10:50:00,119.89,119.89,119.8,119.8,773.0,ATR
2023-05-19 10:47:00,119.74,119.765,119.74,119.765,308.0,ATR
2023-05-19 10:46:00,119.74,119.74,119.74,119.74,117.0,ATR
2023-05-19 10:43:00,119.625,119.625,119.625,119.625,101.0,ATR
2023-05-19 10:36:00,119.7499,119.7499,119.62,119.62,468.0,ATR
2023-05-19 10:29:00,119.73,119.84,119.73,119.765,629.0,ATR
2023-05-19 10:26:00,119.45,119.45,119.45,119.45,100.0,ATR
2023-05-19 10:25:00,119.41,119.41,119.41,119.41,138.0,ATR
2023-05-19 10:10:00,119.73,119.73,119.72,119.72,235.0,ATR
2023-05-19 10:06:00,119.81,119.83,119.81,119.83,638.0,ATR
2023-05-19 10:02:00,119.725,119.83,119.725,119.74,669.0,ATR
2023-05-19 10:00:00,119.89,119.89,119.81,119.81,336.0,ATR
2023-05-19 09:54:00,120.24,120.24,120.24,120.24,103.0,ATR
2023-05-19 09:53:00,120.27,120.27,120.27,120.27,100.0,ATR
2023-05-19 09:52:00,120.035,120.035,120.035,120.035,103.0,ATR
2023-05-19 09:51:00,119.92,119.94,119.91,119.94,668.0,ATR
2023-05-19 09:47:00,120.08,120.08,120.08,120.08,189.0,ATR
2023-05-19 09:43:00,120.22,120.22,120.22,120.22,109.0,ATR
2023-05-19 09:31:00,119.26,120.0,119.26,119.83,1555.0,ATR
2023-05-19 09:30:00,119.88,119.88,119.88,119.88,856.0,ATR
2023-05-18 16:00:00,118.99,118.99,118.99,118.99,1593.0,ATR
2023-05-18 15:59:00,119.0,119.05,118.99,119.04,4284.0,ATR
2023-05-18 15:58:00,118.92,118.97,118.92,118.97,725.0,ATR
2023-05-18 15:57:00,118.86,118.945,118.86,118.945,1661.0,ATR
2023-05-18 15:56:00,118.94,118.94,118.9,118.9,1381.0,ATR
2023-05-18 15:55:00,118.89,118.92,118.89,118.91,1967.0,ATR
2023-05-18 15:54:00,118.92,118.92,118.865,118.865,976.0,ATR
2023-05-18 15:53:00,118.98,118.98,118.94,118.94,1326.0,ATR
2023-05-18 15:52:00,118.95,119.01,118.95,118.97,2618.0,ATR
2023-05-18 15:48:00,118.77,118.77,118.74,118.75,960.0,ATR
2023-05-18 15:47:00,118.805,118.805,118.805,118.805,208.0,ATR
2023-05-18 15:45:00,118.805,118.86,118.805,118.84,1156.0,ATR
2023-05-18 15:44:00,118.74,118.785,118.74,118.785,525.0,ATR
2023-05-18 15:43:00,118.71,118.71,118.71,118.71,527.0,ATR
2023-05-18 15:42:00,118.71,118.71,118.71,118.71,256.0,ATR
2023-05-18 15:40:00,118.6,118.6,118.56,118.56,1325.0,ATR
2023-05-18 15:34:00,118.545,118.545,118.545,118.545,126.0,ATR
2023-05-18 15:33:00,118.51,118.565,118.51,118.565,756.0,ATR
2023-05-18 15:27:00,118.41,118.44,118.41,118.44,230.0,ATR
2023-05-18 15:22:00,118.52,118.52,118.49,118.49,506.0,ATR
2023-05-18 15:20:00,118.59,118.59,118.59,118.59,304.0,ATR
2023-05-18 15:19:00,118.58,118.58,118.5475,118.565,597.0,ATR
2023-05-18 15:16:00,118.56,118.57,118.5,118.5,582.0,ATR
2023-05-18 15:14:00,118.4975,118.4975,118.49,118.49,456.0,ATR
2023-05-18 15:10:00,118.47,118.47,118.46,118.46,1111.0,ATR
2023-05-18 15:09:00,118.4,118.4,118.4,118.4,229.0,ATR
2023-05-18 15:07:00,118.415,118.415,118.415,118.415,107.0,ATR
2023-05-18 15:01:00,118.55,118.55,118.55,118.55,375.0,ATR
2023-05-18 15:00:00,118.65,118.65,118.65,118.65,136.0,ATR
2023-05-18 14:48:00,118.57,118.57,118.57,118.57,337.0,ATR
2023-05-18 14:47:00,118.51,118.59,118.51,118.59,535.0,ATR
2023-05-18 14:36:00,118.48,118.58,118.47,118.49,816.0,ATR
2023-05-18 14:31:00,118.355,118.355,118.355,118.355,128.0,ATR
2023-05-18 14:25:00,118.38,118.38,118.38,118.38,119.0,ATR
2023-05-18 14:19:00,118.0925,118.0925,118.0925,118.0925,306.0,ATR
2023-05-18 14:17:00,118.01,118.07,118.01,118.01,842.0,ATR
2023-05-18 14:16:00,118.04,118.04,118.04,118.04,448.0,ATR
2023-05-18 14:15:00,117.95,117.95,117.95,117.95,114.0,ATR
2023-05-18 14:13:00,117.955,117.955,117.955,117.955,140.0,ATR
2023-05-18 14:11:00,118.02,118.1099,117.96,118.03,3531.0,ATR
2023-05-18 14:10:00,117.97,117.97,117.97,117.97,117.0,ATR
2023-05-18 14:08:00,117.98,117.99,117.98,117.99,439.0,ATR
2023-05-18 14:00:00,117.94,117.94,117.94,117.94,267.0,ATR
2023-05-18 13:59:00,117.99,117.99,117.99,117.99,122.0,ATR
2023-05-18 13:56:00,118.0,118.0,118.0,118.0,111.0,ATR
2023-05-18 13:49:00,118.005,118.005,118.005,118.005,135.0,ATR
2023-05-18 13:47:00,117.9597,117.9597,117.9597,117.9597,177.0,ATR
2023-05-18 13:42:00,118.01,118.01,118.01,118.01,284.0,ATR
2023-05-18 13:39:00,118.1,118.1,118.1,118.1,161.0,ATR
2023-05-18 13:38:00,118.1352,118.1352,118.1352,118.1352,235.0,ATR
2023-05-18 13:35:00,117.86,117.86,117.86,117.86,204.0,ATR
2023-05-18 13:31:00,118.0,118.0,118.0,118.0,129.0,ATR
2023-05-18 13:30:00,117.98,117.98,117.98,117.98,115.0,ATR
2023-05-18 13:29:00,118.08,118.08,118.07,118.07,493.0,ATR
2023-05-18 13:28:00,118.34,118.355,118.29,118.35,3071.0,ATR
2023-05-18 12:56:00,117.98,117.98,117.98,117.98,782.0,ATR
2023-05-18 12:47:00,118.01,118.04,118.01,118.04,819.0,ATR
2023-05-18 12:37:00,117.88,117.88,117.78,117.78,442.0,ATR
2023-05-18 12:18:00,118.11,118.12,118.095,118.12,818.0,ATR
2023-05-18 12:13:00,118.08,118.16,118.06,118.12,1008.0,ATR
2023-05-18 12:08:00,118.16,118.18,118.16,118.18,615.0,ATR
2023-05-18 12:06:00,118.175,118.175,118.175,118.175,100.0,ATR
2023-05-18 12:05:00,118.255,118.255,118.255,118.255,202.0,ATR
2023-05-18 12:00:00,118.38,118.38,118.36,118.36,241.0,ATR
2023-05-18 11:57:00,118.5576,118.5576,118.5576,118.5576,114.0,ATR
2023-05-18 11:56:00,118.63,118.69,118.5,118.5,1136.0,ATR
2023-05-18 11:55:00,118.695,118.695,118.695,118.695,113.0,ATR
2023-05-18 11:52:00,118.66,118.66,118.66,118.66,103.0,ATR
2023-05-18 11:51:00,118.67,118.67,118.67,118.67,536.0,ATR
2023-05-18 11:49:00,118.565,118.58,118.565,118.58,206.0,ATR
2023-05-18 11:44:00,118.51,118.51,118.51,118.51,128.0,ATR
2023-05-18 11:43:00,118.445,118.445,118.445,118.445,788.0,ATR
2023-05-18 11:25:00,118.52,118.52,118.52,118.52,403.0,ATR
2023-05-18 11:22:00,118.82,118.85,118.82,118.85,511.0,ATR
2023-05-18 11:21:00,118.96,118.97,118.96,118.97,441.0,ATR
2023-05-18 11:18:00,118.8473,118.8473,118.8473,118.8473,201.0,ATR
2023-05-18 11:13:00,118.9,118.9,118.9,118.9,160.0,ATR
2023-05-18 11:07:00,118.925,119.03,118.925,119.03,1238.0,ATR
2023-05-18 11:01:00,118.91,118.92,118.91,118.92,727.0,ATR
2023-05-18 11:00:00,118.975,119.03,118.73,118.73,2314.0,ATR
2023-05-18 10:58:00,118.92,118.92,118.92,118.92,131.0,ATR
2023-05-18 10:47:00,118.96,118.97,118.96,118.97,392.0,ATR
2023-05-18 10:29:00,118.78,118.78,118.78,118.78,176.0,ATR
2023-05-18 10:27:00,118.77,118.77,118.77,118.77,622.0,ATR
2023-05-18 10:20:00,118.69,118.69,118.62,118.62,453.0,ATR
2023-05-18 10:13:00,118.51,118.51,118.5,118.5,558.0,ATR
2023-05-18 10:11:00,118.68,118.68,118.68,118.68,105.0,ATR
2023-05-18 10:10:00,118.43,118.43,118.43,118.43,112.0,ATR
2023-05-18 10:05:00,118.07,118.18,118.07,118.17,617.0,ATR
2023-05-18 10:04:00,118.06,118.07,118.06,118.07,318.0,ATR
2023-05-18 10:03:00,118.151,118.151,118.151,118.151,374.0,ATR
2023-05-18 10:02:00,117.96,117.96,117.96,117.96,547.0,ATR
2023-05-18 10:00:00,117.831,117.831,117.831,117.831,193.0,ATR
2023-05-18 09:55:00,117.86,117.86,117.825,117.825,353.0,ATR
2023-05-18 09:54:00,118.0,118.0,118.0,118.0,254.0,ATR
2023-05-18 09:49:00,118.08,118.08,118.08,118.08,263.0,ATR
2023-05-18 09:39:00,118.64,118.64,118.64,118.64,200.0,ATR
2023-05-18 09:35:00,118.13,118.13,118.13,118.13,100.0,ATR
2023-05-18 09:30:00,118.17,118.17,118.17,118.17,753.0,ATR
2023-05-17 16:00:00,118.97,118.97,118.97,118.97,7434.0,ATR
2023-05-17 15:59:00,118.99,119.04,118.98,118.98,5124.0,ATR
2023-05-17 15:58:00,119.02,119.03,118.92,119.03,3160.0,ATR
2023-05-17 15:57:00,118.96,118.99,118.94,118.99,3969.0,ATR
2023-05-17 15:56:00,119.01,119.04,118.96,118.99,2465.0,ATR
2023-05-17 15:55:00,119.02,119.025,119.02,119.025,749.0,ATR
2023-05-17 15:54:00,118.89,118.92,118.86,118.92,1387.0,ATR
2023-05-17 15:53:00,118.83,118.89,118.81,118.89,1396.0,ATR
2023-05-17 15:52:00,118.8,118.81,118.73,118.805,518.0,ATR
2023-05-17 15:51:00,118.66,118.81,118.66,118.81,1645.0,ATR
2023-05-17 15:50:00,118.72,118.74,118.7,118.7,1339.0,ATR
2023-05-17 15:47:00,118.69,118.69,118.68,118.68,643.0,ATR
2023-05-17 15:45:00,118.65,118.65,118.65,118.65,781.0,ATR
2023-05-17 15:44:00,118.6025,118.655,118.6025,118.61,852.0,ATR
2023-05-17 15:43:00,118.655,118.655,118.655,118.655,262.0,ATR
2023-05-17 15:42:00,118.64,118.64,118.6,118.61,1964.0,ATR
2023-05-17 15:41:00,118.54,118.6,118.54,118.6,785.0,ATR
2023-05-17 15:40:00,118.57,118.57,118.57,118.57,270.0,ATR
2023-05-17 15:39:00,118.54,118.6,118.54,118.585,847.0,ATR
2023-05-17 15:37:00,118.55,118.55,118.51,118.51,823.0,ATR
2023-05-17 15:36:00,118.61,118.61,118.56,118.56,692.0,ATR
2023-05-17 15:35:00,118.56,118.6,118.56,118.6,835.0,ATR
2023-05-17 15:33:00,118.54,118.54,118.54,118.54,520.0,ATR
2023-05-17 15:32:00,118.57,118.57,118.57,118.57,446.0,ATR
2023-05-17 15:31:00,118.59,118.59,118.59,118.59,128.0,ATR
2023-05-17 15:30:00,118.56,118.59,118.56,118.59,437.0,ATR
2023-05-17 15:27:00,118.55,118.55,118.55,118.55,312.0,ATR
2023-05-17 15:25:00,118.55,118.55,118.55,118.55,365.0,ATR
2023-05-17 15:23:00,118.5224,118.5224,118.51,118.51,397.0,ATR
2023-05-17 15:21:00,118.68,118.69,118.59,118.59,1342.0,ATR
2023-05-17 15:20:00,118.72,118.74,118.69,118.72,1243.0,ATR
2023-05-17 15:18:00,118.65,118.82,118.65,118.82,676.0,ATR
2023-05-17 15:16:00,118.62,118.685,118.62,118.68,1101.0,ATR
2023-05-17 15:13:00,118.56,118.56,118.56,118.56,499.0,ATR
2023-05-17 15:12:00,118.56,118.57,118.56,118.57,253.0,ATR
2023-05-17 15:08:00,118.61,118.62,118.56,118.56,845.0,ATR
2023-05-17 15:05:00,118.6,118.6,118.6,118.6,223.0,ATR
2023-05-17 15:04:00,118.62,118.62,118.52,118.55,938.0,ATR
2023-05-17 15:00:00,118.56,118.56,118.56,118.56,113.0,ATR
2023-05-17 14:57:00,118.55,118.55,118.51,118.51,432.0,ATR
2023-05-17 14:55:00,118.49,118.49,118.49,118.49,177.0,ATR
2023-05-17 14:54:00,118.46,118.46,118.46,118.46,619.0,ATR
2023-05-17 14:50:00,118.48,118.48,118.48,118.48,308.0,ATR
2023-05-17 14:43:00,118.55,118.55,118.55,118.55,621.0,ATR
2023-05-17 14:41:00,118.65,118.65,118.64,118.64,607.0,ATR
2023-05-17 14:39:00,118.7,118.7,118.7,118.7,492.0,ATR
2023-05-17 14:36:00,118.66,118.66,118.66,118.66,203.0,ATR
2023-05-17 14:34:00,118.57,118.61,118.57,118.605,1434.0,ATR
2023-05-17 14:33:00,118.65,118.65,118.65,118.65,110.0,ATR
2023-05-17 14:32:00,118.555,118.68,118.555,118.65,550.0,ATR
2023-05-17 14:31:00,118.545,118.545,118.54,118.54,459.0,ATR
2023-05-17 14:30:00,118.545,118.545,118.545,118.545,200.0,ATR
2023-05-17 14:29:00,118.53,118.545,118.53,118.545,305.0,ATR
2023-05-17 14:28:00,118.425,118.53,118.425,118.53,1165.0,ATR
2023-05-17 14:27:00,118.415,118.415,118.415,118.415,241.0,ATR
2023-05-17 14:26:00,118.415,118.415,118.415,118.415,102.0,ATR
2023-05-17 14:23:00,118.44,118.44,118.44,118.44,240.0,ATR
2023-05-17 14:21:00,118.58,118.58,118.56,118.56,451.0,ATR
2023-05-17 14:18:00,118.61,118.61,118.61,118.61,157.0,ATR
2023-05-17 14:16:00,118.67,118.67,118.67,118.67,234.0,ATR
2023-05-17 14:15:00,118.74,118.74,118.74,118.74,445.0,ATR
2023-05-17 14:14:00,118.79,118.8,118.77,118.77,658.0,ATR
2023-05-17 14:11:00,118.742,118.79,118.742,118.79,365.0,ATR
2023-05-17 14:09:00,118.565,118.68,118.565,118.68,812.0,ATR
2023-05-17 14:08:00,118.62,118.62,118.57,118.57,919.0,ATR
2023-05-17 14:07:00,118.64,118.64,118.64,118.64,510.0,ATR
2023-05-17 14:05:00,118.69,118.69,118.69,118.69,459.0,ATR
2023-05-17 14:03:00,118.77,118.77,118.77,118.77,144.0,ATR
2023-05-17 14:01:00,118.83,118.83,118.83,118.83,385.0,ATR
2023-05-17 14:00:00,118.88,118.88,118.88,118.88,908.0,ATR
2023-05-17 13:58:00,118.81,118.81,118.81,118.81,573.0,ATR
2023-05-17 13:46:00,118.755,118.755,118.755,118.755,125.0,ATR
2023-05-17 13:44:00,118.7,118.73,118.7,118.73,495.0,ATR
2023-05-17 13:37:00,118.7,118.7,118.7,118.7,433.0,ATR
2023-05-17 13:36:00,118.76,118.7797,118.74,118.74,1259.0,ATR
2023-05-17 13:35:00,118.845,118.845,118.845,118.845,100.0,ATR
2023-05-17 13:34:00,118.845,118.845,118.845,118.845,729.0,ATR
2023-05-17 13:33:00,118.85,118.89,118.85,118.89,623.0,ATR
2023-05-17 13:21:00,118.78,118.78,118.78,118.78,113.0,ATR
2023-05-17 13:17:00,118.745,118.765,118.745,118.765,929.0,ATR
2023-05-17 13:15:00,118.9,118.9,118.9,118.9,810.0,ATR
2023-05-17 13:12:00,118.96,118.96,118.96,118.96,126.0,ATR
2023-05-17 13:11:00,118.86,118.86,118.86,118.86,187.0,ATR
2023-05-17 13:09:00,118.97,118.97,118.97,118.97,318.0,ATR
2023-05-17 13:06:00,119.03,119.03,118.95,118.95,671.0,ATR
2023-05-17 13:02:00,118.88,118.88,118.88,118.88,245.0,ATR
2023-05-17 12:59:00,118.975,118.975,118.85,118.85,1093.0,ATR
2023-05-17 12:58:00,119.0,119.0,118.945,118.995,379.0,ATR
2023-05-17 12:57:00,119.03,119.03,119.02,119.02,301.0,ATR
2023-05-17 12:56:00,118.925,119.035,118.925,119.035,249.0,ATR
2023-05-17 12:55:00,118.925,118.93,118.89,118.89,428.0,ATR
2023-05-17 12:54:00,118.885,118.9,118.885,118.9,217.0,ATR
2023-05-17 12:53:00,118.89,118.89,118.83,118.885,301.0,ATR
2023-05-17 12:52:00,118.835,118.87,118.835,118.87,214.0,ATR
2023-05-17 12:51:00,118.82,118.845,118.82,118.83,379.0,ATR
2023-05-17 12:50:00,118.905,118.905,118.78,118.82,601.0,ATR
2023-05-17 12:49:00,118.905,118.905,118.905,118.905,211.0,ATR
2023-05-17 12:48:00,118.905,118.905,118.845,118.845,207.0,ATR
2023-05-17 12:47:00,118.75,118.925,118.75,118.925,1329.0,ATR
2023-05-17 12:46:00,118.745,118.745,118.745,118.745,298.0,ATR
2023-05-17 12:45:00,118.695,118.695,118.69,118.69,219.0,ATR
2023-05-17 12:44:00,118.645,118.645,118.645,118.645,202.0,ATR
2023-05-17 12:43:00,118.7,118.7,118.645,118.645,262.0,ATR
2023-05-17 12:42:00,118.585,118.595,118.585,118.595,236.0,ATR
2023-05-17 12:41:00,118.565,118.57,118.565,118.57,202.0,ATR
2023-05-17 12:38:00,118.45,118.45,118.45,118.45,222.0,ATR
2023-05-17 12:36:00,118.39,118.39,118.39,118.39,405.0,ATR
2023-05-17 12:31:00,118.325,118.37,118.3,118.3,1508.0,ATR
2023-05-17 12:29:00,118.32,118.32,118.32,118.32,100.0,ATR
2023-05-17 12:27:00,118.21,118.21,118.21,118.21,504.0,ATR
2023-05-17 12:23:00,118.06,118.06,118.06,118.06,237.0,ATR
2023-05-17 12:20:00,117.94,117.94,117.94,117.94,347.0,ATR
2023-05-17 12:18:00,118.08,118.08,118.08,118.08,588.0,ATR
2023-05-17 12:15:00,118.06,118.06,118.06,118.06,223.0,ATR
2023-05-17 12:14:00,118.09,118.09,118.09,118.09,188.0,ATR
2023-05-17 12:13:00,118.13,118.13,118.12,118.12,782.0,ATR
2023-05-17 12:10:00,118.17,118.17,118.17,118.17,198.0,ATR
2023-05-17 12:01:00,118.12,118.12,118.12,118.12,207.0,ATR
2023-05-17 11:55:00,118.08,118.08,118.08,118.08,329.0,ATR
2023-05-17 11:42:00,118.12,118.13,118.12,118.13,847.0,ATR
2023-05-17 11:38:00,118.21,118.21,118.21,118.21,560.0,ATR
2023-05-17 11:31:00,118.29,118.29,118.29,118.29,115.0,ATR
2023-05-17 11:27:00,118.29,118.29,118.29,118.29,113.0,ATR
2023-05-17 11:23:00,118.09,118.11,118.07,118.11,992.0,ATR
2023-05-17 11:20:00,118.23,118.23,118.21,118.21,593.0,ATR
2023-05-17 11:19:00,118.32,118.32,118.32,118.32,236.0,ATR
2023-05-17 11:18:00,118.37,118.37,118.34,118.34,833.0,ATR
2023-05-17 11:17:00,118.31,118.31,118.31,118.31,454.0,ATR
2023-05-17 11:14:00,118.2,118.2,118.2,118.2,443.0,ATR
2023-05-17 11:13:00,118.21,118.21,118.19,118.19,968.0,ATR
2023-05-17 11:06:00,118.37,118.37,118.24,118.24,1046.0,ATR
2023-05-17 11:01:00,118.06,118.06,118.06,118.06,338.0,ATR
2023-05-17 11:00:00,117.955,118.0,117.955,118.0,586.0,ATR
2023-05-17 10:59:00,117.8502,117.8502,117.8502,117.8502,483.0,ATR
2023-05-17 10:58:00,117.89,117.89,117.89,117.89,244.0,ATR
2023-05-17 10:55:00,117.84,117.84,117.765,117.765,382.0,ATR
2023-05-17 10:51:00,118.0,118.0,117.98,117.98,846.0,ATR
2023-05-17 10:50:00,117.99,118.0,117.99,118.0,1035.0,ATR
2023-05-17 10:49:00,117.95,117.95,117.92,117.92,242.0,ATR
2023-05-17 10:48:00,118.02,118.02,117.99,117.99,546.0,ATR
2023-05-17 10:46:00,118.05,118.05,118.02,118.02,1493.0,ATR
2023-05-17 10:44:00,118.11,118.11,118.065,118.065,604.0,ATR
2023-05-17 10:40:00,118.1,118.1,118.1,118.1,116.0,ATR
2023-05-17 10:39:00,118.13,118.13,118.105,118.105,633.0,ATR
2023-05-17 10:38:00,118.215,118.22,118.14,118.22,2086.0,ATR
2023-05-17 10:36:00,118.2,118.2,118.19,118.19,1137.0,ATR
2023-05-17 10:35:00,118.1701,118.1701,118.1701,118.1701,142.0,ATR
2023-05-17 10:34:00,118.235,118.235,118.235,118.235,103.0,ATR
2023-05-17 10:32:00,118.24,118.24,118.22,118.22,739.0,ATR
2023-05-17 10:29:00,118.45,118.45,118.45,118.45,156.0,ATR
2023-05-17 10:25:00,118.17,118.22,118.17,118.22,321.0,ATR
2023-05-17 10:24:00,117.92,118.1,117.92,118.09,2362.0,ATR
2023-05-17 10:19:00,117.67,117.79,117.67,117.79,2077.0,ATR
2023-05-17 10:18:00,117.55,117.55,117.55,117.55,350.0,ATR
2023-05-17 10:17:00,117.55,117.5513,117.46,117.46,1937.0,ATR
2023-05-17 10:16:00,117.68,117.68,117.68,117.68,256.0,ATR
2023-05-17 10:15:00,117.69,117.69,117.69,117.69,300.0,ATR
2023-05-17 10:14:00,117.72,117.78,117.72,117.78,678.0,ATR
2023-05-17 10:10:00,118.09,118.1,117.92,117.92,2176.0,ATR
2023-05-17 10:09:00,118.13,118.13,118.025,118.025,3312.0,ATR
2023-05-17 10:06:00,118.05,118.13,117.96,118.13,1520.0,ATR
2023-05-17 10:01:00,117.925,117.935,117.925,117.935,416.0,ATR
2023-05-17 09:59:00,118.02,118.02,117.98,117.98,377.0,ATR
2023-05-17 09:55:00,118.07,118.07,118.03,118.03,750.0,ATR
2023-05-17 09:53:00,117.96,117.96,117.96,117.96,301.0,ATR
2023-05-17 09:50:00,118.24,118.24,118.24,118.24,629.0,ATR
2023-05-17 09:47:00,118.58,118.58,118.58,118.58,115.0,ATR
2023-05-17 09:45:00,118.26,118.26,118.26,118.26,113.0,ATR
2023-05-17 09:44:00,118.58,118.58,118.58,118.58,101.0,ATR
2023-05-17 09:41:00,118.03,118.03,118.03,118.03,157.0,ATR
2023-05-17 09:40:00,118.1777,118.1777,118.1777,118.1777,173.0,ATR
2023-05-17 09:31:00,117.96,117.96,117.96,117.96,124.0,ATR
2023-05-17 09:30:00,118.82,118.82,118.82,118.82,1365.0,ATR
2023-05-16 16:00:00,118.32,118.32,118.32,118.32,6909.0,ATR
2023-05-16 15:59:00,118.35,118.42,118.35,118.39,4448.0,ATR
2023-05-16 15:58:00,118.33,118.33,118.33,118.33,1698.0,ATR
2023-05-16 15:57:00,118.31,118.33,118.31,118.33,1727.0,ATR
2023-05-16 15:56:00,118.33,118.33,118.3,118.3,1106.0,ATR
2023-05-16 15:55:00,118.31,118.315,118.27,118.27,1248.0,ATR
2023-05-16 15:54:00,118.32,118.32,118.32,118.32,434.0,ATR
2023-05-16 15:53:00,118.36,118.36,118.32,118.34,1883.0,ATR
2023-05-16 15:52:00,118.33,118.33,118.33,118.33,237.0,ATR
2023-05-16 15:51:00,118.33,118.37,118.3,118.3,2213.0,ATR
2023-05-16 15:50:00,118.55,118.55,118.55,118.55,1235.0,ATR
2023-05-16 15:49:00,118.62,118.62,118.57,118.605,1286.0,ATR
2023-05-16 15:46:00,118.54,118.65,118.54,118.65,1512.0,ATR
2023-05-16 15:45:00,118.48,118.48,118.46,118.46,1282.0,ATR
2023-05-16 15:44:00,118.4912,118.5,118.4912,118.5,944.0,ATR
2023-05-16 15:43:00,118.505,118.505,118.505,118.505,497.0,ATR
2023-05-16 15:42:00,118.51,118.515,118.51,118.515,988.0,ATR
2023-05-16 15:41:00,118.535,118.535,118.535,118.535,344.0,ATR
2023-05-16 15:40:00,118.54,118.54,118.54,118.54,771.0,ATR
2023-05-16 15:39:00,118.52,118.52,118.52,118.52,717.0,ATR
2023-05-16 15:37:00,118.52,118.52,118.52,118.52,176.0,ATR
2023-05-16 15:35:00,118.54,118.5825,118.54,118.5825,647.0,ATR
2023-05-16 15:32:00,118.59,118.6,118.55,118.55,516.0,ATR
2023-05-16 15:31:00,118.685,118.71,118.685,118.71,470.0,ATR
2023-05-16 15:30:00,118.42,118.62,118.39,118.62,13730.0,ATR
2023-05-16 15:28:00,118.43,118.43,118.425,118.425,1064.0,ATR
2023-05-16 15:20:00,118.43,118.43,118.43,118.43,126.0,ATR
2023-05-16 15:18:00,118.485,118.485,118.485,118.485,222.0,ATR
2023-05-16 15:16:00,118.47,118.4989,118.433,118.4989,2122.0,ATR
2023-05-16 15:14:00,118.49,118.49,118.48,118.48,1017.0,ATR
2023-05-16 15:13:00,118.56,118.59,118.54,118.54,1569.0,ATR
2023-05-16 15:11:00,118.5075,118.5075,118.505,118.5075,825.0,ATR
2023-05-16 15:10:00,118.49,118.49,118.49,118.49,167.0,ATR
2023-05-16 15:09:00,118.5,118.5,118.45,118.45,722.0,ATR
2023-05-16 15:03:00,118.51,118.51,118.51,118.51,121.0,ATR
2023-05-16 15:02:00,118.52,118.53,118.52,118.53,360.0,ATR
2023-05-16 14:58:00,118.44,118.44,118.44,118.44,480.0,ATR
2023-05-16 14:57:00,118.45,118.45,118.45,118.45,329.0,ATR
2023-05-16 14:56:00,118.495,118.495,118.45,118.47,1459.0,ATR
2023-05-16 14:54:00,118.46,118.46,118.425,118.4475,818.0,ATR
2023-05-16 14:52:00,118.44,118.44,118.44,118.44,785.0,ATR
2023-05-16 14:51:00,118.43,118.43,118.43,118.43,303.0,ATR
2023-05-16 14:50:00,118.44,118.44,118.405,118.42,1272.0,ATR
2023-05-16 14:47:00,118.205,118.31,118.205,118.31,3679.0,ATR
2023-05-16 14:43:00,118.235,118.235,118.235,118.235,684.0,ATR
2023-05-16 14:40:00,118.25,118.28,118.22,118.22,2076.0,ATR
2023-05-16 14:36:00,118.3,118.3,118.23,118.23,663.0,ATR
2023-05-16 14:34:00,118.3175,118.3175,118.315,118.315,405.0,ATR
2023-05-16 14:33:00,118.315,118.315,118.315,118.315,132.0,ATR
2023-05-16 14:32:00,118.2875,118.315,118.2875,118.315,724.0,ATR
2023-05-16 14:31:00,118.29,118.29,118.29,118.29,570.0,ATR
2023-05-16 14:29:00,118.54,118.54,118.4,118.485,2728.0,ATR
2023-05-16 14:26:00,118.515,118.515,118.515,118.515,204.0,ATR
2023-05-16 14:23:00,118.52,118.52,118.52,118.52,102.0,ATR
2023-05-16 14:21:00,118.51,118.51,118.51,118.51,781.0,ATR
2023-05-16 14:20:00,118.57,118.57,118.57,118.57,239.0,ATR
2023-05-16 14:19:00,118.54,118.54,118.54,118.54,263.0,ATR
2023-05-16 14:18:00,118.46,118.5,118.46,118.495,1034.0,ATR
2023-05-16 14:13:00,118.405,118.405,118.405,118.405,162.0,ATR
2023-05-16 14:07:00,118.475,118.475,118.475,118.475,126.0,ATR
2023-05-16 14:02:00,118.59,118.59,118.51,118.51,654.0,ATR
2023-05-16 14:00:00,118.66,118.66,118.66,118.66,384.0,ATR
2023-05-16 13:59:00,118.66,118.66,118.66,118.66,131.0,ATR
2023-05-16 13:57:00,118.64,118.64,118.64,118.64,534.0,ATR
2023-05-16 13:54:00,118.62,118.62,118.62,118.62,786.0,ATR
2023-05-16 13:49:00,118.5601,118.5609,118.55,118.56,1039.0,ATR
2023-05-16 13:48:00,118.615,118.615,118.59,118.59,274.0,ATR
2023-05-16 13:47:00,118.56,118.56,118.56,118.56,740.0,ATR
2023-05-16 13:40:00,118.57,118.6,118.56,118.6,766.0,ATR
2023-05-16 13:31:00,118.62,118.62,118.62,118.62,292.0,ATR
2023-05-16 13:30:00,118.59,118.59,118.585,118.585,1175.0,ATR
2023-05-16 13:28:00,118.61,118.61,118.61,118.61,182.0,ATR
2023-05-16 13:26:00,118.69,118.69,118.69,118.69,156.0,ATR
2023-05-16 13:21:00,118.73,118.73,118.73,118.73,208.0,ATR
2023-05-16 13:20:00,118.78,118.78,118.78,118.78,271.0,ATR
2023-05-16 13:19:00,118.77,118.77,118.77,118.77,276.0,ATR
2023-05-16 13:09:00,118.92,118.92,118.86,118.86,645.0,ATR
2023-05-16 13:04:00,118.88,118.88,118.88,118.88,146.0,ATR
2023-05-16 12:59:00,119.01,119.01,118.96,118.96,1159.0,ATR
2023-05-16 12:58:00,118.985,118.985,118.985,118.985,119.0,ATR
2023-05-16 12:55:00,118.97,118.97,118.97,118.97,134.0,ATR
2023-05-16 12:54:00,118.98,118.98,118.98,118.98,421.0,ATR
2023-05-16 12:50:00,118.93,118.93,118.93,118.93,111.0,ATR
2023-05-16 12:48:00,118.89,118.89,118.86,118.88,771.0,ATR
2023-05-16 12:45:00,118.96,118.96,118.96,118.96,234.0,ATR
2023-05-16 12:42:00,118.95,118.96,118.95,118.96,570.0,ATR
2023-05-16 12:41:00,119.045,119.045,119.04,119.04,361.0,ATR
2023-05-16 12:40:00,118.975,119.03,118.975,119.01,525.0,ATR
2023-05-16 12:39:00,118.93,118.93,118.92,118.92,643.0,ATR
2023-05-16 12:36:00,118.9,118.9,118.9,118.9,236.0,ATR
2023-05-16 12:34:00,118.87,118.87,118.87,118.87,133.0,ATR
2023-05-16 12:33:00,118.81,118.82,118.74,118.77,681.0,ATR
2023-05-16 12:32:00,118.72,118.72,118.72,118.72,100.0,ATR
2023-05-16 12:31:00,118.73,118.73,118.72,118.72,1223.0,ATR
2023-05-16 12:30:00,118.7,118.75,118.68,118.75,919.0,ATR
2023-05-16 12:28:00,118.54,118.54,118.54,118.54,707.0,ATR
2023-05-16 12:27:00,118.485,118.58,118.485,118.55,1896.0,ATR
2023-05-16 12:25:00,118.48,118.48,118.48,118.48,246.0,ATR
2023-05-16 12:23:00,118.49,118.49,118.49,118.49,207.0,ATR
2023-05-16 12:21:00,118.485,118.495,118.445,118.445,858.0,ATR
2023-05-16 12:20:00,118.555,118.555,118.555,118.555,105.0,ATR
2023-05-16 12:19:00,118.56,118.56,118.54,118.545,613.0,ATR
2023-05-16 12:16:00,118.53,118.53,118.53,118.53,111.0,ATR
2023-05-16 12:15:00,118.535,118.535,118.53,118.535,407.0,ATR
2023-05-16 12:13:00,118.525,118.55,118.505,118.505,404.0,ATR
2023-05-16 12:12:00,118.47,118.51,118.43,118.51,916.0,ATR
2023-05-16 12:11:00,118.58,118.58,118.55,118.55,735.0,ATR
2023-05-16 12:10:00,118.605,118.61,118.605,118.61,952.0,ATR
2023-05-16 12:09:00,118.595,118.61,118.595,118.605,739.0,ATR
2023-05-16 12:08:00,118.5714,118.63,118.57,118.595,2632.0,ATR
2023-05-16 12:06:00,118.58,118.58,118.58,118.58,163.0,ATR
2023-05-16 12:05:00,118.58,118.58,118.58,118.58,222.0,ATR
2023-05-16 12:04:00,118.59,118.59,118.58,118.58,601.0,ATR
2023-05-16 12:03:00,118.51,118.51,118.51,118.51,115.0,ATR
2023-05-16 12:00:00,118.5214,118.59,118.52,118.52,346.0,ATR
2023-05-16 11:58:00,118.51,118.51,118.51,118.51,100.0,ATR
2023-05-16 11:57:00,118.585,118.585,118.585,118.585,139.0,ATR
2023-05-16 11:54:00,118.65,118.65,118.65,118.65,319.0,ATR
2023-05-16 11:52:00,118.605,118.61,118.605,118.61,346.0,ATR
2023-05-16 11:49:00,118.52,118.6,118.5,118.6,2210.0,ATR
2023-05-16 11:47:00,118.42,118.42,118.42,118.42,308.0,ATR
2023-05-16 11:45:00,118.53,118.565,118.42,118.565,1340.0,ATR
2023-05-16 11:44:00,118.65,118.65,118.55,118.65,1708.0,ATR
2023-05-16 11:43:00,118.61,118.61,118.61,118.61,317.0,ATR
2023-05-16 11:42:00,118.585,118.585,118.585,118.585,100.0,ATR
2023-05-16 11:41:00,118.58,118.58,118.58,118.58,175.0,ATR
2023-05-16 11:40:00,118.57,118.57,118.57,118.57,800.0,ATR
2023-05-16 11:37:00,118.52,118.6,118.52,118.56,1504.0,ATR
2023-05-16 11:36:00,118.6,118.675,118.6,118.675,348.0,ATR
2023-05-16 11:33:00,118.615,118.615,118.615,118.615,224.0,ATR
2023-05-16 11:30:00,118.83,118.83,118.83,118.83,252.0,ATR
2023-05-16 11:29:00,118.73,118.74,118.71,118.74,1158.0,ATR
2023-05-16 11:28:00,118.65,118.65,118.65,118.65,321.0,ATR
2023-05-16 11:24:00,118.645,118.67,118.645,118.67,762.0,ATR
2023-05-16 11:20:00,118.6321,118.6321,118.6321,118.6321,250.0,ATR
2023-05-16 11:19:00,118.6,118.6,118.6,118.6,222.0,ATR
2023-05-16 11:17:00,118.48,118.58,118.48,118.58,404.0,ATR
2023-05-16 11:13:00,118.66,118.66,118.655,118.655,1017.0,ATR
2023-05-16 11:12:00,118.68,118.68,118.68,118.68,867.0,ATR
2023-05-16 11:09:00,118.57,118.57,118.57,118.57,150.0,ATR
2023-05-16 11:06:00,118.69,118.69,118.69,118.69,303.0,ATR
2023-05-16 11:02:00,118.5523,118.5523,118.5523,118.5523,226.0,ATR
2023-05-16 11:00:00,118.62,118.64,118.62,118.64,1253.0,ATR
2023-05-16 10:58:00,118.515,118.515,118.515,118.515,319.0,ATR
2023-05-16 10:57:00,118.54,118.54,118.54,118.54,341.0,ATR
2023-05-16 10:49:00,118.82,118.82,118.82,118.82,232.0,ATR
2023-05-16 10:48:00,118.68,118.68,118.68,118.68,113.0,ATR
2023-05-16 10:45:00,119.0,119.08,118.82,118.82,4247.0,ATR
2023-05-16 10:43:00,118.8,118.8,118.8,118.8,256.0,ATR
2023-05-16 10:40:00,119.04,119.08,119.0,119.08,593.0,ATR
2023-05-16 10:39:00,119.05,119.05,119.05,119.05,106.0,ATR
2023-05-16 10:36:00,119.1,119.1,119.1,119.1,117.0,ATR
2023-05-16 10:35:00,119.19,119.19,119.09,119.09,296.0,ATR
2023-05-16 10:32:00,119.29,119.29,119.18,119.18,1176.0,ATR
2023-05-16 10:31:00,119.385,119.385,119.385,119.385,107.0,ATR
2023-05-16 10:29:00,119.315,119.33,119.31,119.325,579.0,ATR
2023-05-16 10:28:00,119.255,119.255,119.245,119.245,204.0,ATR
2023-05-16 10:26:00,119.31,119.31,119.265,119.265,462.0,ATR
2023-05-16 10:24:00,119.16,119.16,119.15,119.16,851.0,ATR
2023-05-16 10:23:00,119.04,119.04,119.01,119.01,814.0,ATR
2023-05-16 10:18:00,119.185,119.185,119.185,119.185,125.0,ATR
2023-05-16 10:12:00,119.195,119.195,119.195,119.195,116.0,ATR
2023-05-16 10:10:00,119.33,119.33,119.205,119.205,389.0,ATR
2023-05-16 10:08:00,119.23,119.23,118.97,119.13,1835.0,ATR
2023-05-16 10:07:00,119.28,119.535,119.25,119.535,315.0,ATR
2023-05-16 10:06:00,119.485,119.485,119.485,119.485,241.0,ATR
2023-05-16 10:04:00,119.31,119.34,119.31,119.335,1342.0,ATR
2023-05-16 10:03:00,119.21,119.21,119.21,119.21,105.0,ATR
2023-05-16 10:01:00,119.08,119.3725,119.08,119.235,1429.0,ATR
2023-05-16 10:00:00,119.605,119.605,119.605,119.605,146.0,ATR
2023-05-16 09:58:00,119.52,119.52,119.52,119.52,143.0,ATR
2023-05-16 09:57:00,119.52,119.52,119.52,119.52,101.0,ATR
2023-05-16 09:55:00,119.34,119.34,119.34,119.34,114.0,ATR
2023-05-16 09:50:00,119.54,119.54,119.54,119.54,366.0,ATR
2023-05-16 09:47:00,119.5128,119.5128,119.5128,119.5128,178.0,ATR
2023-05-16 09:44:00,120.4325,120.4325,120.4325,120.4325,107.0,ATR
2023-05-16 09:38:00,119.35,119.35,119.35,119.35,100.0,ATR
2023-05-16 09:35:00,119.51,119.51,119.5,119.5,200.0,ATR
2023-05-16 09:30:00,120.58,120.58,120.58,120.58,476.0,ATR
2023-05-15 16:00:00,120.58,120.58,120.58,120.58,2188.0,ATR
2023-05-15 15:59:00,120.44,120.62,120.4,120.61,6293.0,ATR
2023-05-15 15:58:00,120.41,120.47,120.38,120.47,5827.0,ATR
2023-05-15 15:57:00,120.37,120.46,120.37,120.46,1545.0,ATR
2023-05-15 15:56:00,120.3,120.315,120.26,120.3,3158.0,ATR
2023-05-15 15:55:00,120.26,120.27,120.26,120.27,920.0,ATR
2023-05-15 15:54:00,120.31,120.31,120.25,120.25,1344.0,ATR
2023-05-15 15:53:00,120.24,120.34,120.24,120.32,812.0,ATR
2023-05-15 15:52:00,120.18,120.25,120.175,120.22,2150.0,ATR
2023-05-15 15:51:00,120.26,120.29,120.15,120.15,2487.0,ATR
2023-05-15 15:50:00,120.36,120.38,120.29,120.36,2921.0,ATR
2023-05-15 15:49:00,120.48,120.48,120.325,120.325,1259.0,ATR
2023-05-15 15:48:00,120.51,120.52,120.505,120.515,432.0,ATR
2023-05-15 15:47:00,120.405,120.485,120.405,120.48,3078.0,ATR
2023-05-15 15:46:00,120.45,120.45,120.405,120.405,719.0,ATR
2023-05-15 15:44:00,120.42,120.45,120.42,120.445,551.0,ATR
2023-05-15 15:41:00,120.46,120.485,120.46,120.47,1031.0,ATR
2023-05-15 15:40:00,120.5,120.5,120.5,120.5,518.0,ATR
2023-05-15 15:39:00,120.5,120.5,120.5,120.5,389.0,ATR
2023-05-15 15:37:00,120.5,120.5,120.47,120.47,643.0,ATR
2023-05-15 15:36:00,120.5,120.53,120.5,120.5,367.0,ATR
2023-05-15 15:34:00,120.52,120.5425,120.51,120.5425,1138.0,ATR
2023-05-15 15:33:00,120.55,120.56,120.55,120.555,1020.0,ATR
2023-05-15 15:32:00,120.545,120.545,120.51,120.51,579.0,ATR
2023-05-15 15:31:00,120.47,120.535,120.445,120.535,2803.0,ATR
2023-05-15 15:30:00,120.44,120.44,120.41,120.41,265.0,ATR
2023-05-15 15:29:00,120.42,120.46,120.34,120.46,3763.0,ATR
2023-05-15 15:28:00,120.405,120.45,120.405,120.425,1929.0,ATR
2023-05-15 15:25:00,120.405,120.405,120.405,120.405,233.0,ATR
2023-05-15 15:23:00,120.41,120.41,120.41,120.41,642.0,ATR
2023-05-15 15:22:00,120.42,120.44,120.395,120.42,1772.0,ATR
2023-05-15 15:21:00,120.39,120.39,120.39,120.39,102.0,ATR
2023-05-15 15:20:00,120.44,120.44,120.41,120.41,992.0,ATR
2023-05-15 15:19:00,120.47,120.47,120.47,120.47,139.0,ATR
2023-05-15 15:18:00,120.4475,120.46,120.41,120.46,1413.0,ATR
2023-05-15 15:13:00,120.55,120.55,120.55,120.55,113.0,ATR
2023-05-15 15:09:00,120.46,120.46,120.44,120.44,923.0,ATR
2023-05-15 15:07:00,120.49,120.5,120.465,120.49,1224.0,ATR
2023-05-15 15:06:00,120.45,120.45,120.45,120.45,362.0,ATR
2023-05-15 15:04:00,120.44,120.44,120.425,120.425,369.0,ATR
2023-05-15 14:58:00,120.49,120.5,120.43,120.43,1452.0,ATR
2023-05-15 14:57:00,120.52,120.52,120.52,120.52,419.0,ATR
2023-05-15 14:54:00,120.545,120.5675,120.545,120.565,940.0,ATR
2023-05-15 14:53:00,120.59,120.6,120.57,120.57,707.0,ATR
2023-05-15 14:50:00,120.63,120.63,120.63,120.63,160.0,ATR
2023-05-15 14:43:00,120.6,120.6,120.6,120.6,491.0,ATR
2023-05-15 14:40:00,120.625,120.63,120.625,120.63,257.0,ATR
2023-05-15 14:38:00,120.58,120.58,120.58,120.58,143.0,ATR
2023-05-15 14:37:00,120.66,120.69,120.61,120.61,900.0,ATR
2023-05-15 14:35:00,120.69,120.69,120.69,120.69,106.0,ATR
2023-05-15 14:33:00,120.615,120.67,120.615,120.67,430.0,ATR
2023-05-15 14:31:00,120.57,120.57,120.57,120.57,508.0,ATR
2023-05-15 14:30:00,120.59,120.62,120.59,120.62,572.0,ATR
2023-05-15 14:29:00,120.56,120.56,120.54,120.54,310.0,ATR
2023-05-15 14:27:00,120.61,120.61,120.6,120.6,417.0,ATR
2023-05-15 14:26:00,120.61,120.61,120.61,120.61,153.0,ATR
2023-05-15 14:23:00,120.66,120.66,120.575,120.575,813.0,ATR
2023-05-15 14:22:00,120.675,120.69,120.675,120.69,324.0,ATR
2023-05-15 14:21:00,120.645,120.69,120.645,120.67,1978.0,ATR
2023-05-15 14:20:00,120.625,120.6275,120.625,120.625,328.0,ATR
2023-05-15 14:18:00,120.6,120.63,120.6,120.63,773.0,ATR
2023-05-15 14:16:00,120.64,120.64,120.6,120.6,433.0,ATR
2023-05-15 14:11:00,120.71,120.71,120.67,120.67,688.0,ATR
2023-05-15 14:08:00,120.84,120.84,120.69,120.69,3076.0,ATR
2023-05-15 14:07:00,120.835,120.84,120.835,120.84,3495.0,ATR
2023-05-15 14:01:00,120.76,120.88,120.75,120.88,1209.0,ATR
2023-05-15 13:52:00,120.71,120.72,120.71,120.72,1026.0,ATR
2023-05-15 13:42:00,120.7,120.705,120.7,120.705,371.0,ATR
2023-05-15 13:36:00,120.83,120.83,120.83,120.83,102.0,ATR
2023-05-15 13:35:00,120.9,120.9,120.8825,120.8825,285.0,ATR
2023-05-15 13:30:00,120.9,120.9,120.9,120.9,252.0,ATR
2023-05-15 13:28:00,120.9619,120.985,120.9619,120.985,316.0,ATR
2023-05-15 13:27:00,121.01,121.04,120.97,120.97,896.0,ATR
2023-05-15 13:21:00,121.02,121.02,121.02,121.02,113.0,ATR
2023-05-15 13:14:00,121.0,121.0,120.98,121.0,720.0,ATR
2023-05-15 13:13:00,121.0728,121.0728,121.0728,121.0728,225.0,ATR
2023-05-15 13:11:00,120.93,120.93,120.93,120.93,264.0,ATR
2023-05-15 13:10:00,120.83,120.93,120.79,120.93,3176.0,ATR
2023-05-15 13:09:00,120.91,120.91,120.895,120.895,571.0,ATR
2023-05-15 12:57:00,120.87,120.87,120.87,120.87,179.0,ATR
2023-05-15 12:53:00,120.81,120.81,120.81,120.81,102.0,ATR
2023-05-15 12:49:00,120.715,120.715,120.715,120.715,100.0,ATR
2023-05-15 12:48:00,120.69,120.69,120.69,120.69,432.0,ATR
2023-05-15 12:46:00,120.66,120.66,120.59,120.59,201.0,ATR
2023-05-15 12:45:00,120.66,120.66,120.66,120.66,256.0,ATR
2023-05-15 12:44:00,120.4,120.44,120.38,120.38,892.0,ATR
2023-05-15 12:33:00,120.39,120.39,120.39,120.39,112.0,ATR
2023-05-15 12:27:00,120.25,120.25,120.25,120.25,310.0,ATR
2023-05-15 12:16:00,120.1,120.1,120.035,120.035,570.0,ATR
2023-05-15 12:10:00,120.06,120.06,120.06,120.06,904.0,ATR
2023-05-15 12:00:00,120.15,120.15,120.15,120.15,261.0,ATR
2023-05-15 11:55:00,120.21,120.21,120.21,120.21,117.0,ATR
2023-05-15 11:54:00,120.26,120.26,120.21,120.21,711.0,ATR
2023-05-15 11:51:00,120.28,120.28,120.28,120.28,240.0,ATR
2023-05-15 11:47:00,120.26,120.26,120.26,120.26,363.0,ATR
2023-05-15 11:40:00,120.26,120.265,120.26,120.265,297.0,ATR
2023-05-15 11:32:00,120.38,120.38,120.325,120.325,465.0,ATR
2023-05-15 11:28:00,120.4,120.4,120.4,120.4,457.0,ATR
2023-05-15 11:26:00,120.39,120.425,120.39,120.425,568.0,ATR
2023-05-15 11:25:00,120.45,120.45,120.41,120.42,872.0,ATR
2023-05-15 11:24:00,120.4,120.43,120.39,120.43,1085.0,ATR
2023-05-15 11:23:00,120.39,120.39,120.39,120.39,293.0,ATR
2023-05-15 11:22:00,120.37,120.37,120.37,120.37,229.0,ATR
2023-05-15 11:19:00,120.375,120.375,120.375,120.375,182.0,ATR
2023-05-15 11:12:00,120.4,120.4,120.4,120.4,107.0,ATR
2023-05-15 11:11:00,120.485,120.485,120.485,120.485,124.0,ATR
2023-05-15 11:06:00,120.43,120.435,120.41,120.435,555.0,ATR
2023-05-15 10:58:00,120.43,120.43,120.43,120.43,262.0,ATR
2023-05-15 10:57:00,120.46,120.46,120.46,120.46,524.0,ATR
2023-05-15 10:54:00,120.57,120.59,120.5,120.5275,1303.0,ATR
2023-05-15 10:48:00,120.58,120.62,120.58,120.62,230.0,ATR
2023-05-15 10:46:00,120.6,120.6,120.6,120.6,308.0,ATR
2023-05-15 10:44:00,120.6,120.6,120.6,120.6,101.0,ATR
2023-05-15 10:39:00,120.59,120.59,120.57,120.57,709.0,ATR
2023-05-15 10:36:00,120.71,120.71,120.71,120.71,219.0,ATR
2023-05-15 10:33:00,120.72,120.72,120.72,120.72,188.0,ATR
2023-05-15 10:30:00,120.52,120.52,120.52,120.52,235.0,ATR
2023-05-15 10:28:00,120.61,120.61,120.61,120.61,160.0,ATR
2023-05-15 10:27:00,120.44,120.44,120.44,120.44,116.0,ATR
2023-05-15 10:26:00,120.42,120.42,120.42,120.42,197.0,ATR
2023-05-15 10:12:00,120.2274,120.2274,120.2274,120.2274,255.0,ATR
2023-05-15 10:09:00,120.13,120.13,120.075,120.075,930.0,ATR
2023-05-15 10:08:00,120.22,120.22,120.2,120.2,347.0,ATR
2023-05-15 10:00:00,120.195,120.195,120.195,120.195,173.0,ATR
2023-05-15 09:53:00,120.38,120.44,120.38,120.41,1332.0,ATR
2023-05-15 09:31:00,120.8,120.8,120.8,120.8,475.0,ATR
2023-05-15 09:30:00,120.59,120.59,120.59,120.59,1131.0,ATR
2023-05-12 16:00:00,120.79,120.79,120.79,120.79,2193.0,ATR
2023-05-12 15:59:00,120.76,120.82,120.7,120.82,4927.0,ATR
2023-05-12 15:58:00,120.75,120.8,120.71,120.79,3821.0,ATR
2023-05-12 15:57:00,120.8,120.84,120.76,120.795,3177.0,ATR
2023-05-12 15:56:00,120.77,120.84,120.77,120.77,3499.0,ATR
2023-05-12 15:55:00,120.84,120.87,120.77,120.77,3370.0,ATR
2023-05-12 15:54:00,120.82,120.86,120.75,120.765,2844.0,ATR
2023-05-12 15:53:00,120.79,120.81,120.79,120.81,1338.0,ATR
2023-05-12 15:52:00,120.83,120.83,120.72,120.76,2181.0,ATR
2023-05-12 15:51:00,120.74,120.79,120.722,120.79,851.0,ATR
2023-05-12 15:50:00,120.48,120.7,120.48,120.68,4914.0,ATR
2023-05-12 15:49:00,120.45,120.46,120.381,120.385,2368.0,ATR
2023-05-12 15:47:00,120.41,120.42,120.4,120.41,1214.0,ATR
2023-05-12 15:46:00,120.54,120.54,120.35,120.35,3775.0,ATR
2023-05-12 15:45:00,120.57,120.64,120.565,120.565,1096.0,ATR
2023-05-12 15:44:00,120.49,120.525,120.49,120.52,943.0,ATR
2023-05-12 15:42:00,120.455,120.5,120.455,120.5,300.0,ATR
2023-05-12 15:41:00,120.37,120.49,120.37,120.49,717.0,ATR
2023-05-12 15:40:00,120.29,120.29,120.29,120.29,259.0,ATR
2023-05-12 15:39:00,120.3,120.3,120.29,120.29,1028.0,ATR
2023-05-12 15:36:00,120.32,120.34,120.31,120.34,1435.0,ATR
2023-05-12 15:35:00,120.33,120.44,120.33,120.44,550.0,ATR
2023-05-12 15:33:00,120.22,120.22,120.22,120.22,218.0,ATR
2023-05-12 15:31:00,120.2075,120.25,120.2075,120.25,571.0,ATR
2023-05-12 15:28:00,120.19,120.19,120.14,120.18,1053.0,ATR
2023-05-12 15:27:00,120.2,120.22,120.18,120.22,1533.0,ATR
2023-05-12 15:25:00,120.17,120.17,120.17,120.17,114.0,ATR
2023-05-12 15:24:00,120.135,120.135,120.135,120.135,124.0,ATR
2023-05-12 15:21:00,120.12,120.12,120.12,120.12,103.0,ATR
2023-05-12 15:20:00,120.1255,120.1255,120.1255,120.1255,284.0,ATR
2023-05-12 15:19:00,120.04,120.04,120.04,120.04,189.0,ATR
2023-05-12 15:17:00,120.065,120.07,119.99,119.99,4002.0,ATR
2023-05-12 15:13:00,120.05,120.05,120.05,120.05,265.0,ATR
2023-05-12 15:12:00,120.01,120.01,120.01,120.01,444.0,ATR
2023-05-12 15:07:00,119.98,119.98,119.98,119.98,276.0,ATR
2023-05-12 15:04:00,119.97,119.97,119.97,119.97,274.0,ATR
2023-05-12 15:00:00,119.98,119.98,119.98,119.98,432.0,ATR
2023-05-12 14:58:00,119.89,119.89,119.89,119.89,100.0,ATR
2023-05-12 14:56:00,119.97,119.97,119.91,119.91,2059.0,ATR
2023-05-12 14:54:00,119.955,119.955,119.955,119.955,110.0,ATR
2023-05-12 14:51:00,119.92,119.92,119.92,119.92,291.0,ATR
2023-05-12 14:49:00,119.75,119.75,119.75,119.75,178.0,ATR
2023-05-12 14:48:00,119.785,119.785,119.785,119.785,100.0,ATR
2023-05-12 14:45:00,119.75,119.75,119.75,119.75,293.0,ATR
2023-05-12 14:41:00,119.77,119.77,119.63,119.63,1188.0,ATR
2023-05-12 14:39:00,119.86,119.86,119.86,119.86,388.0,ATR
2023-05-12 14:38:00,119.88,119.9,119.88,119.88,349.0,ATR
2023-05-12 14:35:00,119.96,119.96,119.96,119.96,288.0,ATR
2023-05-12 14:34:00,119.87,119.87,119.87,119.87,231.0,ATR
2023-05-12 14:31:00,119.82,119.82,119.79,119.81,1933.0,ATR
2023-05-12 14:24:00,119.67,119.67,119.67,119.67,124.0,ATR
2023-05-12 14:17:00,119.64,119.64,119.64,119.64,288.0,ATR
2023-05-12 14:16:00,119.65,119.65,119.65,119.65,112.0,ATR
2023-05-12 14:14:00,119.57,119.6,119.57,119.59,701.0,ATR
2023-05-12 14:12:00,119.62,119.62,119.6,119.6,1305.0,ATR
2023-05-12 14:11:00,119.71,119.71,119.71,119.71,157.0,ATR
2023-05-12 14:06:00,119.68,119.68,119.68,119.68,344.0,ATR
2023-05-12 14:02:00,119.57,119.57,119.57,119.57,289.0,ATR
2023-05-12 13:58:00,119.55,119.55,119.55,119.55,411.0,ATR
2023-05-12 13:57:00,119.47,119.47,119.47,119.47,808.0,ATR
2023-05-12 13:54:00,119.39,119.39,119.39,119.39,139.0,ATR
2023-05-12 13:52:00,119.44,119.46,119.44,119.45,908.0,ATR
2023-05-12 13:44:00,119.68,119.68,119.58,119.59,1375.0,ATR
2023-05-12 13:42:00,119.68,119.68,119.68,119.68,339.0,ATR
2023-05-12 13:40:00,119.615,119.615,119.615,119.615,143.0,ATR
2023-05-12 13:39:00,119.72,119.72,119.63,119.63,302.0,ATR
2023-05-12 13:32:00,119.63,119.63,119.63,119.63,221.0,ATR
2023-05-12 13:26:00,119.509,119.509,119.509,119.509,210.0,ATR
2023-05-12 13:25:00,119.6,119.6,119.6,119.6,100.0,ATR
2023-05-12 13:24:00,119.61,119.61,119.57,119.57,367.0,ATR
2023-05-12 13:23:00,119.52,119.525,119.52,119.525,287.0,ATR
2023-05-12 13:17:00,119.46,119.46,119.45,119.46,1162.0,ATR
2023-05-12 13:16:00,119.53,119.53,119.53,119.53,100.0,ATR
2023-05-12 13:14:00,119.505,119.505,119.485,119.485,613.0,ATR
2023-05-12 13:13:00,119.57,119.57,119.57,119.57,139.0,ATR
2023-05-12 13:10:00,119.495,119.495,119.495,119.495,200.0,ATR
2023-05-12 13:06:00,119.52,119.52,119.505,119.51,597.0,ATR
2023-05-12 13:05:00,119.4,119.44,119.4,119.44,467.0,ATR
2023-05-12 13:03:00,119.35,119.35,119.35,119.35,121.0,ATR
2023-05-12 13:02:00,119.345,119.345,119.345,119.345,114.0,ATR
2023-05-12 13:01:00,119.345,119.345,119.345,119.345,613.0,ATR
2023-05-12 12:54:00,119.41,119.41,119.41,119.41,133.0,ATR
2023-05-12 12:53:00,119.37,119.4,119.37,119.38,1036.0,ATR
2023-05-12 12:50:00,119.37,119.41,119.37,119.41,364.0,ATR
2023-05-12 12:48:00,119.44,119.44,119.44,119.44,402.0,ATR
2023-05-12 12:46:00,119.43,119.43,119.43,119.43,111.0,ATR
2023-05-12 12:38:00,119.42,119.42,119.42,119.42,100.0,ATR
2023-05-12 12:37:00,119.46,119.46,119.42,119.42,1305.0,ATR
2023-05-12 12:35:00,119.57,119.57,119.57,119.57,108.0,ATR
2023-05-12 12:32:00,119.515,119.515,119.515,119.515,110.0,ATR
2023-05-12 12:31:00,119.51,119.51,119.51,119.51,104.0,ATR
2023-05-12 12:30:00,119.51,119.51,119.51,119.51,129.0,ATR
2023-05-12 12:28:00,119.54,119.54,119.4267,119.4267,1010.0,ATR
2023-05-12 12:26:00,119.445,119.45,119.445,119.45,242.0,ATR
2023-05-12 12:22:00,119.465,119.465,119.38,119.42,779.0,ATR
2023-05-12 12:20:00,119.43,119.43,119.43,119.43,286.0,ATR
2023-05-12 12:16:00,119.47,119.47,119.47,119.47,327.0,ATR
2023-05-12 12:14:00,119.46,119.46,119.46,119.46,189.0,ATR
2023-05-12 12:13:00,119.44,119.44,119.44,119.44,110.0,ATR
2023-05-12 12:11:00,119.39,119.39,119.39,119.39,362.0,ATR
2023-05-12 12:10:00,119.46,119.46,119.43,119.43,324.0,ATR
2023-05-12 12:04:00,119.535,119.535,119.535,119.535,119.0,ATR
2023-05-12 12:03:00,119.59,119.59,119.57,119.57,544.0,ATR
2023-05-12 12:01:00,119.69,119.69,119.69,119.69,112.0,ATR
2023-05-12 12:00:00,119.64,119.65,119.56,119.65,873.0,ATR
2023-05-12 11:49:00,119.57,119.57,119.57,119.57,212.0,ATR
2023-05-12 11:48:00,119.57,119.57,119.57,119.57,253.0,ATR
2023-05-12 11:39:00,119.54,119.54,119.54,119.54,257.0,ATR
2023-05-12 11:38:00,119.66,119.66,119.61,119.61,686.0,ATR
2023-05-12 11:37:00,119.695,119.73,119.695,119.73,560.0,ATR
2023-05-12 11:36:00,119.71,119.71,119.68,119.68,1075.0,ATR
2023-05-12 11:35:00,119.81,119.81,119.81,119.81,144.0,ATR
2023-05-12 11:34:00,119.735,119.735,119.735,119.735,210.0,ATR
2023-05-12 11:33:00,119.74,119.74,119.74,119.74,198.0,ATR
2023-05-12 11:31:00,119.76,119.76,119.76,119.76,110.0,ATR
2023-05-12 11:28:00,119.9,119.9,119.9,119.9,174.0,ATR
2023-05-12 11:26:00,119.79,119.89,119.79,119.89,525.0,ATR
2023-05-12 11:19:00,119.7,119.7,119.7,119.7,102.0,ATR
2023-05-12 11:18:00,119.69,119.69,119.69,119.69,367.0,ATR
2023-05-12 11:15:00,119.63,119.655,119.63,119.655,467.0,ATR
2023-05-12 11:12:00,119.715,119.715,119.63,119.63,575.0,ATR
2023-05-12 11:09:00,119.8,119.81,119.725,119.725,1138.0,ATR
2023-05-12 11:05:00,119.92,119.98,119.885,119.89,452.0,ATR
2023-05-12 11:04:00,119.885,119.885,119.885,119.885,132.0,ATR
2023-05-12 11:02:00,119.885,119.885,119.885,119.885,111.0,ATR
2023-05-12 11:00:00,119.89,119.89,119.89,119.89,149.0,ATR
2023-05-12 10:59:00,119.9,119.9,119.895,119.895,276.0,ATR
2023-05-12 10:57:00,119.905,119.905,119.905,119.905,429.0,ATR
2023-05-12 10:55:00,119.74,119.765,119.74,119.765,961.0,ATR
2023-05-12 10:49:00,119.75,119.78,119.75,119.77,862.0,ATR
2023-05-12 10:47:00,119.88,119.88,119.88,119.88,145.0,ATR
2023-05-12 10:44:00,119.795,119.795,119.795,119.795,282.0,ATR
2023-05-12 10:42:00,119.83,119.83,119.83,119.83,100.0,ATR
2023-05-12 10:35:00,119.87,119.87,119.87,119.87,201.0,ATR
2023-05-12 10:33:00,119.86,119.86,119.86,119.86,104.0,ATR
2023-05-12 10:30:00,119.94,119.94,119.86,119.86,830.0,ATR
2023-05-12 10:28:00,120.08,120.08,120.08,120.08,210.0,ATR
2023-05-12 10:27:00,120.075,120.075,120.075,120.075,256.0,ATR
2023-05-12 10:23:00,120.2,120.36,120.12,120.12,1472.0,ATR
2023-05-12 10:19:00,120.105,120.105,120.105,120.105,240.0,ATR
2023-05-12 10:17:00,120.15,120.16,120.06,120.16,1915.0,ATR
2023-05-12 10:13:00,120.03,120.03,120.03,120.03,2989.0,ATR
2023-05-12 10:12:00,120.04,120.04,120.04,120.04,234.0,ATR
2023-05-12 10:07:00,120.22,120.22,120.22,120.22,331.0,ATR
2023-05-12 10:06:00,120.28,120.28,120.28,120.28,100.0,ATR
2023-05-12 10:01:00,119.86,120.11,119.855,119.87,2720.0,ATR
2023-05-12 10:00:00,120.31,120.31,119.63,119.855,1163.0,ATR
2023-05-12 09:59:00,120.44,120.44,120.32,120.33,1416.0,ATR
2023-05-12 09:57:00,120.545,120.545,120.455,120.455,264.0,ATR
2023-05-12 09:55:00,120.3474,120.435,120.3474,120.435,501.0,ATR
2023-05-12 09:54:00,120.35,120.35,120.34,120.34,243.0,ATR
2023-05-12 09:48:00,120.26,120.52,120.26,120.52,328.0,ATR
2023-05-12 09:45:00,120.25,120.255,120.25,120.255,203.0,ATR
2023-05-12 09:44:00,120.255,120.26,120.255,120.26,203.0,ATR
2023-05-12 09:43:00,120.285,120.285,119.9173,119.9173,222.0,ATR
2023-05-12 09:42:00,120.275,120.28,120.275,120.28,211.0,ATR
2023-05-12 09:41:00,120.72,120.72,120.255,120.275,1021.0,ATR
2023-05-12 09:40:00,120.22,120.22,120.22,120.22,103.0,ATR
2023-05-12 09:39:00,120.215,120.49,119.995,120.22,2327.0,ATR
2023-05-12 09:38:00,120.185,120.185,120.185,120.185,101.0,ATR
2023-05-12 09:36:00,120.175,120.175,120.175,120.175,100.0,ATR
2023-05-12 09:35:00,120.05,120.7,120.05,120.065,1724.0,ATR
2023-05-12 09:34:00,120.025,120.05,120.025,120.05,710.0,ATR
2023-05-12 09:33:00,119.795,119.795,119.795,119.795,100.0,ATR
2023-05-12 09:30:00,119.68,119.68,119.68,119.68,674.0,ATR
2023-05-11 16:00:00,119.28,119.28,119.28,119.28,5684.0,ATR
2023-05-11 15:59:00,119.31,119.44,119.26,119.28,19276.0,ATR
2023-05-11 15:58:00,119.6,119.62,119.35,119.35,11277.0,ATR
2023-05-11 15:57:00,119.56,119.63,119.56,119.56,2443.0,ATR
2023-05-11 15:56:00,119.585,119.595,119.53,119.54,2201.0,ATR
2023-05-11 15:55:00,119.69,119.69,119.57,119.57,2035.0,ATR
2023-05-11 15:54:00,119.53,119.56,119.53,119.56,1111.0,ATR
2023-05-11 15:53:00,119.52,119.52,119.44,119.465,1436.0,ATR
2023-05-11 15:52:00,119.53,119.64,119.53,119.53,3214.0,ATR
2023-05-11 15:51:00,119.53,119.62,119.53,119.53,2208.0,ATR
2023-05-11 15:50:00,119.53,119.53,119.47,119.53,1757.0,ATR
2023-05-11 15:49:00,119.36,119.48,119.35,119.48,1782.0,ATR
2023-05-11 15:48:00,119.31,119.405,119.31,119.405,660.0,ATR
2023-05-11 15:47:00,119.25,119.25,119.25,119.25,533.0,ATR
2023-05-11 15:46:00,119.23,119.32,119.23,119.32,385.0,ATR
2023-05-11 15:45:00,119.24,119.38,119.215,119.23,1489.0,ATR
2023-05-11 15:44:00,119.37,119.37,119.2,119.2,6282.0,ATR
2023-05-11 15:43:00,119.34,119.37,119.3,119.37,702.0,ATR
2023-05-11 15:42:00,119.36,119.36,119.29,119.29,391.0,ATR
2023-05-11 15:41:00,119.3,119.37,119.29,119.295,789.0,ATR
2023-05-11 15:40:00,119.29,119.365,119.29,119.365,425.0,ATR
2023-05-11 15:39:00,119.2915,119.2915,119.2915,119.2915,214.0,ATR
2023-05-11 15:38:00,119.31,119.31,119.29,119.29,296.0,ATR
2023-05-11 15:37:00,119.24,119.31,119.24,119.31,276.0,ATR
2023-05-11 15:36:00,119.26,119.26,119.255,119.255,909.0,ATR
2023-05-11 15:35:00,119.47,119.47,119.32,119.32,1563.0,ATR
2023-05-11 15:34:00,119.47,119.47,119.47,119.47,238.0,ATR
2023-05-11 15:33:00,119.5,119.5,119.471,119.471,841.0,ATR
2023-05-11 15:29:00,119.51,119.51,119.51,119.51,118.0,ATR
2023-05-11 15:28:00,119.48,119.51,119.43,119.435,1572.0,ATR
2023-05-11 15:27:00,119.45,119.45,119.45,119.45,133.0,ATR
2023-05-11 15:26:00,119.415,119.415,119.41,119.41,323.0,ATR
2023-05-11 15:25:00,119.4543,119.4543,119.4543,119.4543,579.0,ATR
2023-05-11 15:24:00,119.41,119.41,119.41,119.41,306.0,ATR
2023-05-11 15:21:00,119.45,119.45,119.42,119.425,472.0,ATR
2023-05-11 15:18:00,119.5,119.5,119.5,119.5,112.0,ATR
2023-05-11 15:17:00,119.58,119.615,119.49,119.49,779.0,ATR
2023-05-11 15:15:00,119.63,119.65,119.63,119.65,854.0,ATR
2023-05-11 15:11:00,119.665,119.665,119.665,119.665,271.0,ATR
2023-05-11 15:02:00,119.535,119.535,119.535,119.535,101.0,ATR
2023-05-11 14:57:00,119.54,119.54,119.51,119.51,486.0,ATR
2023-05-11 14:55:00,119.5,119.5,119.5,119.5,211.0,ATR
2023-05-11 14:54:00,119.5,119.5,119.5,119.5,368.0,ATR
2023-05-11 14:53:00,119.52,119.52,119.52,119.52,314.0,ATR
2023-05-11 14:52:00,119.575,119.575,119.575,119.575,230.0,ATR
2023-05-11 14:51:00,119.57,119.57,119.57,119.57,130.0,ATR
2023-05-11 14:50:00,119.59,119.59,119.58,119.58,1078.0,ATR
2023-05-11 14:43:00,119.54,119.54,119.54,119.54,367.0,ATR
2023-05-11 14:40:00,119.465,119.49,119.465,119.49,600.0,ATR
2023-05-11 14:39:00,119.47,119.48,119.47,119.48,587.0,ATR
2023-05-11 14:37:00,119.465,119.465,119.465,119.465,256.0,ATR
2023-05-11 14:36:00,119.46,119.46,119.46,119.46,138.0,ATR
2023-05-11 14:33:00,119.465,119.465,119.465,119.465,128.0,ATR
2023-05-11 14:32:00,119.465,119.465,119.465,119.465,177.0,ATR
2023-05-11 14:30:00,119.49,119.54,119.49,119.5,381.0,ATR
2023-05-11 14:24:00,119.42,119.44,119.42,119.435,920.0,ATR
2023-05-11 14:21:00,119.2517,119.2517,119.2517,119.2517,283.0,ATR
2023-05-11 14:12:00,119.4,119.4,119.4,119.4,429.0,ATR
2023-05-11 14:09:00,119.405,119.405,119.405,119.405,192.0,ATR
2023-05-11 14:01:00,119.445,119.445,119.42,119.42,364.0,ATR
2023-05-11 13:59:00,119.42,119.42,119.42,119.42,157.0,ATR
2023-05-11 13:58:00,119.4,119.41,119.4,119.41,589.0,ATR
2023-05-11 13:57:00,119.37,119.37,119.37,119.37,128.0,ATR
2023-05-11 13:50:00,119.24,119.24,119.24,119.24,120.0,ATR
2023-05-11 13:46:00,119.27,119.27,119.27,119.27,275.0,ATR
2023-05-11 13:44:00,119.455,119.455,119.33,119.415,2408.0,ATR
2023-05-11 13:38:00,119.4,119.42,119.4,119.42,660.0,ATR
2023-05-11 13:37:00,119.38,119.38,119.38,119.38,126.0,ATR
2023-05-11 13:31:00,119.1969,119.1969,119.1969,119.1969,205.0,ATR
2023-05-11 13:24:00,119.3,119.3,119.3,119.3,460.0,ATR
2023-05-11 13:20:00,119.4,119.4,119.4,119.4,375.0,ATR
2023-05-11 13:14:00,119.44,119.44,119.44,119.44,570.0,ATR
2023-05-11 13:13:00,119.44,119.44,119.44,119.44,334.0,ATR
2023-05-11 13:09:00,119.58,119.58,119.58,119.58,831.0,ATR
2023-05-11 13:08:00,119.63,119.63,119.63,119.63,115.0,ATR
2023-05-11 13:06:00,119.63,119.63,119.63,119.63,112.0,ATR
2023-05-11 13:00:00,119.63,119.63,119.63,119.63,201.0,ATR
2023-05-11 12:59:00,119.6,119.68,119.6,119.68,263.0,ATR
2023-05-11 12:57:00,119.585,119.585,119.585,119.585,229.0,ATR
2023-05-11 12:56:00,119.585,119.585,119.585,119.585,147.0,ATR
2023-05-11 12:54:00,119.67,119.67,119.585,119.585,515.0,ATR
2023-05-11 12:52:00,119.585,119.59,119.585,119.59,232.0,ATR
2023-05-11 12:48:00,119.585,119.585,119.585,119.585,130.0,ATR
2023-05-11 12:45:00,119.53,119.53,119.53,119.53,106.0,ATR
2023-05-11 12:44:00,119.535,119.535,119.53,119.53,320.0,ATR
2023-05-11 12:42:00,119.57,119.57,119.51,119.52,743.0,ATR
2023-05-11 12:40:00,119.5625,119.5625,119.5625,119.5625,116.0,ATR
2023-05-11 12:34:00,119.4725,119.4725,119.4725,119.4725,128.0,ATR
2023-05-11 12:25:00,119.6,119.6,119.6,119.6,112.0,ATR
2023-05-11 12:24:00,119.59,119.59,119.59,119.59,223.0,ATR
2023-05-11 12:23:00,119.4,119.4,119.4,119.4,351.0,ATR
2023-05-11 12:17:00,119.25,119.25,119.25,119.25,295.0,ATR
2023-05-11 12:08:00,119.335,119.335,119.335,119.335,167.0,ATR
2023-05-11 12:02:00,119.29,119.29,119.27,119.29,1015.0,ATR
2023-05-11 12:00:00,119.32,119.41,119.32,119.41,343.0,ATR
2023-05-11 11:59:00,119.31,119.31,119.31,119.31,382.0,ATR
2023-05-11 11:54:00,119.305,119.305,119.305,119.305,159.0,ATR
2023-05-11 11:53:00,119.305,119.305,119.305,119.305,221.0,ATR
2023-05-11 11:52:00,119.31,119.31,119.31,119.31,100.0,ATR
2023-05-11 11:51:00,119.421,119.421,119.3,119.42,332.0,ATR
2023-05-11 11:48:00,119.305,119.305,119.305,119.305,185.0,ATR
2023-05-11 11:45:00,119.25,119.25,119.25,119.25,237.0,ATR
2023-05-11 11:43:00,119.265,119.265,119.265,119.265,300.0,ATR
2023-05-11 11:38:00,119.29,119.29,119.29,119.29,120.0,ATR
2023-05-11 11:35:00,119.205,119.205,119.205,119.205,108.0,ATR
2023-05-11 11:30:00,119.2,119.2,119.2,119.2,607.0,ATR
2023-05-11 11:29:00,119.205,119.205,119.205,119.205,124.0,ATR
2023-05-11 11:27:00,119.14,119.14,119.14,119.14,966.0,ATR
2023-05-11 11:22:00,119.2,119.21,119.16,119.21,379.0,ATR
2023-05-11 11:18:00,119.15,119.15,119.15,119.15,195.0,ATR
2023-05-11 11:10:00,119.18,119.18,119.18,119.18,212.0,ATR
2023-05-11 11:06:00,119.28,119.28,119.28,119.28,476.0,ATR
2023-05-11 11:00:00,119.39,119.415,119.39,119.415,332.0,ATR
2023-05-11 10:54:00,119.355,119.355,119.355,119.355,183.0,ATR
2023-05-11 10:49:00,119.51,119.51,119.39,119.39,842.0,ATR
2023-05-11 10:48:00,119.49,119.49,119.49,119.49,164.0,ATR
2023-05-11 10:47:00,119.36,119.43,119.36,119.43,251.0,ATR
2023-05-11 10:46:00,119.35,119.35,119.35,119.35,223.0,ATR
2023-05-11 10:45:00,119.25,119.25,119.25,119.25,103.0,ATR
2023-05-11 10:43:00,119.23,119.23,119.215,119.215,726.0,ATR
2023-05-11 10:41:00,119.2725,119.2725,119.2725,119.2725,151.0,ATR
2023-05-11 10:40:00,119.325,119.325,119.325,119.325,112.0,ATR
2023-05-11 10:39:00,119.3775,119.3775,119.3775,119.3775,110.0,ATR
2023-05-11 10:35:00,119.27,119.325,119.27,119.325,499.0,ATR
2023-05-11 10:33:00,119.255,119.27,119.255,119.27,326.0,ATR
2023-05-11 10:32:00,119.32,119.32,119.32,119.32,482.0,ATR
2023-05-11 10:28:00,119.315,119.315,119.315,119.315,150.0,ATR
2023-05-11 10:27:00,119.34,119.34,119.34,119.34,156.0,ATR
2023-05-11 10:26:00,119.27,119.27,119.27,119.27,213.0,ATR
2023-05-11 10:25:00,119.24,119.24,119.24,119.24,100.0,ATR
2023-05-11 10:24:00,119.195,119.195,119.195,119.195,271.0,ATR
2023-05-11 10:23:00,119.2,119.2,119.2,119.2,211.0,ATR
2023-05-11 10:19:00,119.24,119.24,119.1,119.1,943.0,ATR
2023-05-11 10:18:00,119.3,119.3,119.3,119.3,100.0,ATR
2023-05-11 10:17:00,119.3,119.3,119.3,119.3,208.0,ATR
2023-05-11 10:16:00,119.305,119.305,119.305,119.305,336.0,ATR
2023-05-11 10:15:00,119.255,119.305,119.255,119.305,528.0,ATR
2023-05-11 10:14:00,119.18,119.28,119.04,119.255,3506.0,ATR
2023-05-11 10:10:00,119.015,119.015,119.015,119.015,135.0,ATR
2023-05-11 10:09:00,119.04,119.04,118.96,118.96,1611.0,ATR
2023-05-11 10:07:00,119.235,119.235,119.235,119.235,101.0,ATR
2023-05-11 10:01:00,119.145,119.145,119.145,119.145,1867.0,ATR
2023-05-11 09:58:00,119.16,119.16,119.16,119.16,563.0,ATR
2023-05-11 09:57:00,119.165,119.165,119.165,119.165,149.0,ATR
2023-05-11 09:55:00,119.25,119.25,118.96,119.2225,4266.0,ATR
2023-05-11 09:54:00,119.17,119.17,119.17,119.17,3109.0,ATR
2023-05-11 09:50:00,119.17,119.17,119.17,119.17,262.0,ATR
2023-05-11 09:48:00,119.14,119.19,119.05,119.16,1267.0,ATR
2023-05-11 09:46:00,119.21,119.235,119.21,119.235,808.0,ATR
2023-05-11 09:36:00,119.395,119.395,119.395,119.395,110.0,ATR
2023-05-11 09:34:00,119.65,119.65,119.64,119.64,435.0,ATR
2023-05-11 09:31:00,119.83,119.83,119.83,119.83,118.0,ATR
2023-05-11 09:30:00,119.48,119.48,119.48,119.48,1226.0,ATR
2023-05-10 16:00:00,119.62,119.62,119.62,119.62,5110.0,ATR
2023-05-10 15:59:00,119.69,119.79,119.59,119.59,8928.0,ATR
2023-05-10 15:58:00,119.9,119.9,119.56,119.67,14530.0,ATR
2023-05-10 15:57:00,119.87,119.87,119.87,119.87,625.0,ATR
2023-05-10 15:56:00,120.05,120.05,119.82,119.83,4010.0,ATR
2023-05-10 15:55:00,119.92,120.01,119.92,120.01,1011.0,ATR
2023-05-10 15:54:00,119.905,119.905,119.85,119.9,1743.0,ATR
2023-05-10 15:53:00,119.76,119.88,119.76,119.88,1275.0,ATR
2023-05-10 15:52:00,119.755,119.755,119.755,119.755,528.0,ATR
2023-05-10 15:51:00,119.72,119.72,119.715,119.715,693.0,ATR
2023-05-10 15:50:00,119.88,119.88,119.73,119.73,1112.0,ATR
2023-05-10 15:49:00,119.92,119.92,119.915,119.915,874.0,ATR
2023-05-10 15:48:00,119.81,119.88,119.81,119.86,1156.0,ATR
2023-05-10 15:47:00,119.845,119.845,119.805,119.805,789.0,ATR
2023-05-10 15:46:00,119.905,119.905,119.905,119.905,152.0,ATR
2023-05-10 15:45:00,119.905,119.905,119.905,119.905,127.0,ATR
2023-05-10 15:44:00,119.95,120.03,119.95,119.95,989.0,ATR
2023-05-10 15:43:00,119.94,119.96,119.85,119.96,914.0,ATR
2023-05-10 15:42:00,119.995,119.995,119.995,119.995,113.0,ATR
2023-05-10 15:41:00,119.94,119.98,119.94,119.98,387.0,ATR
2023-05-10 15:39:00,119.89,119.975,119.89,119.925,750.0,ATR
2023-05-10 15:38:00,119.86,119.9075,119.86,119.9075,811.0,ATR
2023-05-10 15:35:00,119.855,119.855,119.72,119.73,2154.0,ATR
2023-05-10 15:34:00,119.91,119.91,119.88,119.88,1147.0,ATR
2023-05-10 15:33:00,119.795,119.86,119.795,119.86,222.0,ATR
2023-05-10 15:32:00,119.9025,119.9025,119.86,119.86,604.0,ATR
2023-05-10 15:30:00,119.93,119.93,119.875,119.88,2054.0,ATR
2023-05-10 15:28:00,120.005,120.005,120.005,120.005,128.0,ATR
2023-05-10 15:26:00,119.87,119.8834,119.87,119.8834,555.0,ATR
2023-05-10 15:25:00,119.9,119.9,119.9,119.9,233.0,ATR
2023-05-10 15:23:00,119.81,119.9,119.81,119.9,466.0,ATR
2023-05-10 15:22:00,119.82,119.82,119.82,119.82,102.0,ATR
2023-05-10 15:20:00,119.63,119.63,119.63,119.63,277.0,ATR
2023-05-10 15:14:00,119.445,119.47,119.445,119.47,605.0,ATR
2023-05-10 15:13:00,119.49,119.49,119.47,119.48,1393.0,ATR
2023-05-10 15:12:00,119.505,119.505,119.505,119.505,230.0,ATR
2023-05-10 15:09:00,119.46,119.52,119.46,119.52,1886.0,ATR
2023-05-10 15:08:00,119.38,119.5,119.38,119.5,888.0,ATR
2023-05-10 15:07:00,119.45,119.45,119.355,119.4,1439.0,ATR
2023-05-10 15:06:00,119.45,119.55,119.45,119.475,635.0,ATR
2023-05-10 15:05:00,119.38,119.52,119.38,119.52,3201.0,ATR
2023-05-10 15:04:00,119.33,119.33,119.325,119.325,627.0,ATR
2023-05-10 15:01:00,119.27,119.27,119.27,119.27,223.0,ATR
2023-05-10 14:59:00,119.335,119.335,119.335,119.335,132.0,ATR
2023-05-10 14:56:00,119.33,119.33,119.33,119.33,113.0,ATR
2023-05-10 14:55:00,119.33,119.39,119.33,119.33,351.0,ATR
2023-05-10 14:51:00,119.34,119.34,119.34,119.34,681.0,ATR
2023-05-10 14:49:00,119.33,119.33,119.33,119.33,326.0,ATR
2023-05-10 14:47:00,119.255,119.255,119.255,119.255,580.0,ATR
2023-05-10 14:44:00,119.42,119.42,119.42,119.42,141.0,ATR
2023-05-10 14:42:00,119.2,119.28,119.2,119.28,713.0,ATR
2023-05-10 14:40:00,119.2,119.2,119.2,119.2,478.0,ATR
2023-05-10 14:39:00,119.21,119.22,119.21,119.22,351.0,ATR
2023-05-10 14:38:00,119.175,119.175,119.175,119.175,114.0,ATR
2023-05-10 14:37:00,119.165,119.165,119.165,119.165,100.0,ATR
2023-05-10 14:36:00,119.18,119.21,119.18,119.21,334.0,ATR
2023-05-10 14:33:00,119.1,119.12,119.1,119.12,1220.0,ATR
2023-05-10 14:32:00,119.04,119.065,119.04,119.065,262.0,ATR
2023-05-10 14:28:00,118.9,119.1,118.9,119.09,1616.0,ATR
2023-05-10 14:27:00,118.95,118.95,118.9,118.9,297.0,ATR
2023-05-10 14:26:00,118.9,118.9,118.9,118.9,214.0,ATR
2023-05-10 14:22:00,118.93,118.93,118.92,118.92,703.0,ATR
2023-05-10 14:21:00,118.97,118.97,118.9684,118.9684,278.0,ATR
2023-05-10 14:20:00,118.99,118.99,118.99,118.99,174.0,ATR
2023-05-10 14:19:00,119.0276,119.045,119.0276,119.045,701.0,ATR
2023-05-10 14:18:00,119.02,119.035,119.02,119.035,465.0,ATR
2023-05-10 14:15:00,118.985,119.04,118.985,119.035,412.0,ATR
2023-05-10 14:14:00,119.0,119.0,119.0,119.0,317.0,ATR
2023-05-10 14:13:00,119.06,119.1,119.06,119.06,1234.0,ATR
2023-05-10 14:12:00,119.04,119.1,119.04,119.1,1970.0,ATR
2023-05-10 14:11:00,119.045,119.1,119.045,119.045,3194.0,ATR
2023-05-10 14:10:00,119.06,119.07,119.035,119.035,511.0,ATR
2023-05-10 14:09:00,118.97,118.97,118.97,118.97,192.0,ATR
2023-05-10 14:05:00,118.88,118.92,118.88,118.92,838.0,ATR
2023-05-10 14:01:00,118.81,118.85,118.81,118.85,374.0,ATR
2023-05-10 14:00:00,118.86,118.86,118.85,118.86,1062.0,ATR
2023-05-10 13:50:00,118.66,118.68,118.66,118.68,322.0,ATR
2023-05-10 13:47:00,118.545,118.59,118.52,118.52,1058.0,ATR
2023-05-10 13:46:00,118.66,118.66,118.58,118.58,330.0,ATR
2023-05-10 13:45:00,118.58,118.58,118.58,118.58,155.0,ATR
2023-05-10 13:43:00,118.605,118.605,118.605,118.605,353.0,ATR
2023-05-10 13:37:00,118.55,118.61,118.495,118.555,1598.0,ATR
2023-05-10 13:36:00,118.53,118.53,118.53,118.53,343.0,ATR
2023-05-10 13:31:00,118.62,118.62,118.62,118.62,345.0,ATR
2023-05-10 13:29:00,118.51,118.51,118.51,118.51,106.0,ATR
2023-05-10 13:26:00,118.55,118.57,118.55,118.57,315.0,ATR
2023-05-10 13:24:00,118.61,118.61,118.6,118.6,674.0,ATR
2023-05-10 13:12:00,118.64,118.64,118.64,118.64,175.0,ATR
2023-05-10 13:11:00,118.65,118.67,118.595,118.595,1488.0,ATR
2023-05-10 13:09:00,118.745,118.745,118.745,118.745,250.0,ATR
2023-05-10 13:04:00,118.85,118.85,118.71,118.71,260.0,ATR
2023-05-10 13:03:00,118.71,118.71,118.71,118.71,564.0,ATR
2023-05-10 13:02:00,118.74,118.74,118.74,118.74,237.0,ATR
2023-05-10 12:58:00,118.81,118.85,118.705,118.705,1200.0,ATR
2023-05-10 12:54:00,118.84,118.84,118.84,118.84,348.0,ATR
2023-05-10 12:53:00,118.83,118.87,118.81,118.87,828.0,ATR
2023-05-10 12:48:00,118.8794,118.8794,118.8794,118.8794,100.0,ATR
2023-05-10 12:47:00,118.99,118.99,118.82,118.82,345.0,ATR
2023-05-10 12:46:00,118.86,118.86,118.86,118.86,133.0,ATR
2023-05-10 12:45:00,118.86,118.86,118.86,118.86,266.0,ATR
2023-05-10 12:44:00,118.8565,118.8565,118.8565,118.8565,240.0,ATR
2023-05-10 12:43:00,118.87,118.87,118.87,118.87,163.0,ATR
2023-05-10 12:42:00,118.92,118.92,118.92,118.92,253.0,ATR
2023-05-10 12:41:00,118.94,118.965,118.925,118.94,1317.0,ATR
2023-05-10 12:40:00,118.94,119.038,118.83,118.87,6882.0,ATR
2023-05-10 12:35:00,119.0,119.0,118.915,118.915,1360.0,ATR
2023-05-10 12:33:00,119.085,119.09,119.085,119.09,304.0,ATR
2023-05-10 12:31:00,119.1,119.1,119.1,119.1,247.0,ATR
2023-05-10 12:30:00,119.2,119.2,119.095,119.095,1168.0,ATR
2023-05-10 12:29:00,119.2,119.2,119.2,119.2,133.0,ATR
2023-05-10 12:28:00,119.19,119.19,119.19,119.19,332.0,ATR
2023-05-10 12:27:00,119.15,119.15,119.15,119.15,101.0,ATR
2023-05-10 12:26:00,119.27,119.27,119.09,119.09,614.0,ATR
2023-05-10 12:24:00,119.29,119.29,119.265,119.265,552.0,ATR
2023-05-10 12:12:00,119.18,119.18,119.18,119.18,100.0,ATR
2023-05-10 12:10:00,119.165,119.165,119.165,119.165,278.0,ATR
2023-05-10 12:09:00,119.19,119.19,119.165,119.165,627.0,ATR
2023-05-10 12:08:00,119.1,119.1,119.1,119.1,121.0,ATR
2023-05-10 12:05:00,119.11,119.11,119.11,119.11,251.0,ATR
2023-05-10 12:01:00,119.16,119.195,119.16,119.195,633.0,ATR
2023-05-10 11:57:00,119.23,119.24,119.23,119.24,265.0,ATR
2023-05-10 11:56:00,119.19,119.2,119.1,119.155,980.0,ATR
2023-05-10 11:51:00,119.26,119.34,119.26,119.265,422.0,ATR
2023-05-10 11:50:00,119.21,119.21,119.21,119.21,100.0,ATR
2023-05-10 11:49:00,119.25,119.25,119.25,119.25,457.0,ATR
2023-05-10 11:48:00,119.39,119.39,119.255,119.255,2817.0,ATR
2023-05-10 11:42:00,119.46,119.46,119.46,119.46,100.0,ATR
2023-05-10 11:41:00,119.425,119.445,119.425,119.445,679.0,ATR
2023-05-10 11:40:00,119.41,119.41,119.41,119.41,197.0,ATR
2023-05-10 11:35:00,119.47,119.47,119.46,119.46,650.0,ATR
2023-05-10 11:34:00,119.62,119.77,119.62,119.64,2731.0,ATR
2023-05-10 11:27:00,119.625,119.625,119.625,119.625,110.0,ATR
2023-05-10 11:25:00,119.635,119.635,119.635,119.635,157.0,ATR
2023-05-10 11:21:00,119.615,119.615,119.615,119.615,101.0,ATR
2023-05-10 11:09:00,119.43,119.43,119.43,119.43,340.0,ATR
2023-05-10 11:08:00,119.1,119.1,119.1,119.1,276.0,ATR
2023-05-10 11:06:00,119.11,119.26,119.11,119.23,1174.0,ATR
2023-05-10 11:05:00,118.98,119.11,118.98,119.11,200.0,ATR
2023-05-10 11:04:00,118.98,118.98,118.98,118.98,100.0,ATR
2023-05-10 11:03:00,119.0111,119.105,118.98,118.98,1271.0,ATR
2023-05-10 11:02:00,118.975,118.975,118.975,118.975,355.0,ATR
2023-05-10 11:01:00,119.13,119.15,119.13,119.15,529.0,ATR
2023-05-10 11:00:00,119.13,119.13,119.13,119.13,330.0,ATR
2023-05-10 10:59:00,119.125,119.125,119.125,119.125,141.0,ATR
2023-05-10 10:58:00,119.18,119.18,119.065,119.065,318.0,ATR
2023-05-10 10:57:00,119.3,119.3,119.3,119.3,378.0,ATR
2023-05-10 10:56:00,119.315,119.315,119.3,119.3,200.0,ATR
2023-05-10 10:53:00,119.33,119.34,119.33,119.34,951.0,ATR
2023-05-10 10:52:00,118.965,119.32,118.96,119.14,2690.0,ATR
2023-05-10 10:51:00,118.915,119.08,118.915,118.965,1362.0,ATR
2023-05-10 10:50:00,119.435,119.435,118.91,118.91,4002.0,ATR
2023-05-10 10:49:00,119.56,119.56,119.54,119.54,300.0,ATR
2023-05-10 10:48:00,119.78,119.78,119.555,119.555,218.0,ATR
2023-05-10 10:44:00,119.68,119.68,119.68,119.68,361.0,ATR
2023-05-10 10:43:00,119.66,119.66,119.66,119.66,234.0,ATR
2023-05-10 10:41:00,119.785,119.785,119.785,119.785,260.0,ATR
2023-05-10 10:37:00,119.7,119.7,119.7,119.7,226.0,ATR
2023-05-10 10:34:00,120.01,120.01,119.93,119.93,647.0,ATR
2023-05-10 10:23:00,120.095,120.095,120.095,120.095,239.0,ATR
2023-05-10 10:19:00,120.1,120.1,120.1,120.1,179.0,ATR
2023-05-10 10:16:00,120.12,120.12,120.12,120.12,165.0,ATR
2023-05-10 10:14:00,120.24,120.24,120.16,120.16,461.0,ATR
2023-05-10 10:10:00,120.28,120.28,120.28,120.28,166.0,ATR
2023-05-10 10:09:00,120.395,120.395,120.395,120.395,450.0,ATR
2023-05-10 10:02:00,120.37,120.37,120.37,120.37,264.0,ATR
2023-05-10 10:00:00,120.37,120.37,120.37,120.37,105.0,ATR
2023-05-10 09:59:00,120.12,120.42,120.115,120.42,2434.0,ATR
2023-05-10 09:50:00,120.28,120.28,120.01,120.01,567.0,ATR
2023-05-10 09:49:00,119.8694,119.8694,119.8694,119.8694,1012.0,ATR
2023-05-10 09:47:00,120.11,120.13,119.88,119.88,973.0,ATR
2023-05-10 09:45:00,120.11,120.11,120.11,120.11,242.0,ATR
2023-05-10 09:44:00,120.54,120.54,120.4,120.4,379.0,ATR
2023-05-10 09:40:00,120.66,120.66,120.5,120.58,2165.0,ATR
2023-05-10 09:39:00,121.09,121.09,121.09,121.09,137.0,ATR
2023-05-10 09:37:00,121.095,121.095,121.095,121.095,105.0,ATR
2023-05-10 09:34:00,121.57,121.57,121.57,121.57,107.0,ATR
2023-05-10 09:30:00,121.09,121.09,121.09,121.09,1291.0,ATR
2023-05-09 16:12:00,120.58,120.58,120.58,120.58,3470.0,ATR
2023-05-09 16:00:00,120.58,120.58,120.58,120.58,1261.0,ATR
2023-05-09 15:59:00,120.59,120.635,120.52,120.52,5412.0,ATR
2023-05-09 15:58:00,120.615,120.65,120.6,120.635,3383.0,ATR
2023-05-09 15:57:00,120.71,120.71,120.63,120.635,2452.0,ATR
2023-05-09 15:56:00,120.6,120.74,120.6,120.645,3175.0,ATR
2023-05-09 15:55:00,120.685,120.685,120.585,120.595,1747.0,ATR
2023-05-09 15:54:00,120.655,120.71,120.621,120.685,2417.0,ATR
2023-05-09 15:53:00,120.77,120.77,120.65,120.65,2316.0,ATR
2023-05-09 15:52:00,120.615,120.76,120.615,120.76,1994.0,ATR
2023-05-09 15:51:00,120.655,120.655,120.615,120.615,927.0,ATR
2023-05-09 15:50:00,120.74,120.74,120.675,120.675,1585.0,ATR
2023-05-09 15:49:00,120.82,120.82,120.82,120.82,302.0,ATR
2023-05-09 15:48:00,120.82,120.84,120.82,120.835,1351.0,ATR
2023-05-09 15:47:00,120.725,120.8,120.725,120.735,479.0,ATR
2023-05-09 15:46:00,120.715,120.715,120.715,120.715,126.0,ATR
2023-05-09 15:45:00,120.87,120.88,120.74,120.74,1292.0,ATR
2023-05-09 15:44:00,120.955,120.955,120.9,120.92,1402.0,ATR
2023-05-09 15:43:00,120.82,121.03,120.765,121.03,2348.0,ATR
2023-05-09 15:42:00,120.73,120.75,120.73,120.75,803.0,ATR
2023-05-09 15:41:00,120.68,120.72,120.675,120.72,1383.0,ATR
2023-05-09 15:40:00,120.69,120.69,120.65,120.65,2152.0,ATR
2023-05-09 15:39:00,120.73,120.73,120.68,120.68,661.0,ATR
2023-05-09 15:38:00,120.79,120.82,120.72,120.74,2152.0,ATR
2023-05-09 15:37:00,120.765,120.84,120.765,120.79,1898.0,ATR
2023-05-09 15:36:00,120.765,120.765,120.765,120.765,415.0,ATR
2023-05-09 15:35:00,120.76,120.76,120.76,120.76,129.0,ATR
2023-05-09 15:34:00,120.76,120.76,120.76,120.76,206.0,ATR
2023-05-09 15:33:00,120.712,120.73,120.712,120.73,501.0,ATR
2023-05-09 15:31:00,120.76,120.8,120.76,120.76,354.0,ATR
2023-05-09 15:30:00,120.74,120.74,120.7,120.71,1736.0,ATR
2023-05-09 15:29:00,120.78,120.78,120.78,120.78,235.0,ATR
2023-05-09 15:27:00,120.65,120.72,120.65,120.72,247.0,ATR
2023-05-09 15:26:00,120.735,120.735,120.735,120.735,242.0,ATR
2023-05-09 15:24:00,120.735,120.735,120.735,120.735,103.0,ATR
2023-05-09 15:22:00,120.605,120.64,120.605,120.62,810.0,ATR
2023-05-09 15:21:00,120.56,120.56,120.52,120.52,1398.0,ATR
2023-05-09 15:20:00,120.585,120.62,120.585,120.615,943.0,ATR
2023-05-09 15:19:00,120.635,120.635,120.59,120.59,1283.0,ATR
2023-05-09 15:18:00,120.61,120.61,120.61,120.61,412.0,ATR
2023-05-09 15:17:00,120.58,120.58,120.58,120.58,265.0,ATR
2023-05-09 15:16:00,120.6097,120.61,120.6097,120.61,677.0,ATR
2023-05-09 15:15:00,120.61,120.61,120.61,120.61,466.0,ATR
2023-05-09 15:13:00,120.61,120.61,120.61,120.61,158.0,ATR
2023-05-09 15:11:00,120.61,120.61,120.57,120.57,200.0,ATR
2023-05-09 15:10:00,120.6,120.6,120.59,120.59,735.0,ATR
2023-05-09 15:09:00,120.62,120.62,120.62,120.62,113.0,ATR
2023-05-09 15:08:00,120.63,120.63,120.58,120.62,1048.0,ATR
2023-05-09 15:06:00,120.59,120.62,120.59,120.62,618.0,ATR
2023-05-09 15:05:00,120.62,120.63,120.615,120.63,549.0,ATR
2023-05-09 15:04:00,120.61,120.61,120.61,120.61,107.0,ATR
2023-05-09 15:03:00,120.555,120.555,120.555,120.555,234.0,ATR
2023-05-09 15:01:00,120.5,120.5,120.5,120.5,175.0,ATR
2023-05-09 15:00:00,120.48,120.48,120.48,120.48,117.0,ATR
2023-05-09 14:58:00,120.56,120.56,120.49,120.49,371.0,ATR
2023-05-09 14:57:00,120.43,120.43,120.43,120.43,436.0,ATR
2023-05-09 14:56:00,120.36,120.36,120.36,120.36,311.0,ATR
2023-05-09 14:55:00,120.36,120.435,120.36,120.435,427.0,ATR
2023-05-09 14:54:00,120.45,120.45,120.45,120.45,628.0,ATR
2023-05-09 14:53:00,120.55,120.55,120.48,120.48,1342.0,ATR
2023-05-09 14:51:00,120.66,120.66,120.66,120.66,104.0,ATR
2023-05-09 14:50:00,120.66,120.66,120.66,120.66,111.0,ATR
2023-05-09 14:48:00,120.72,120.72,120.65,120.65,1763.0,ATR
2023-05-09 14:47:00,120.65,120.65,120.65,120.65,397.0,ATR
2023-05-09 14:46:00,120.525,120.56,120.525,120.56,217.0,ATR
2023-05-09 14:45:00,120.4,120.425,120.4,120.425,599.0,ATR
2023-05-09 14:44:00,120.4,120.45,120.4,120.45,300.0,ATR
2023-05-09 14:42:00,120.33,120.33,120.33,120.33,114.0,ATR
2023-05-09 14:41:00,120.305,120.305,120.27,120.27,419.0,ATR
2023-05-09 14:40:00,120.22,120.24,120.22,120.24,652.0,ATR
2023-05-09 14:38:00,120.18,120.18,120.18,120.18,625.0,ATR
2023-05-09 14:37:00,120.26,120.26,120.26,120.26,114.0,ATR
2023-05-09 14:34:00,120.26,120.26,120.26,120.26,106.0,ATR
2023-05-09 14:31:00,120.255,120.255,120.255,120.255,101.0,ATR
2023-05-09 14:28:00,120.23,120.23,120.23,120.23,100.0,ATR
2023-05-09 14:27:00,120.18,120.18,120.18,120.18,651.0,ATR
2023-05-09 14:25:00,120.295,120.295,120.295,120.295,206.0,ATR
2023-05-09 14:24:00,120.26,120.26,120.26,120.26,129.0,ATR
2023-05-09 14:23:00,120.29,120.29,120.27,120.27,493.0,ATR
2023-05-09 14:22:00,120.335,120.335,120.335,120.335,200.0,ATR
2023-05-09 14:21:00,120.33,120.33,120.33,120.33,253.0,ATR
2023-05-09 14:19:00,120.305,120.305,120.305,120.305,311.0,ATR
2023-05-09 14:18:00,120.375,120.375,120.26,120.26,524.0,ATR
2023-05-09 14:15:00,120.33,120.335,120.33,120.335,254.0,ATR
2023-05-09 14:11:00,120.285,120.285,120.285,120.285,221.0,ATR
2023-05-09 14:10:00,120.2,120.25,120.2,120.245,912.0,ATR
2023-05-09 14:08:00,120.175,120.175,120.175,120.175,200.0,ATR
2023-05-09 14:07:00,120.145,120.145,120.1,120.1,504.0,ATR
2023-05-09 14:04:00,120.26,120.26,120.17,120.17,708.0,ATR
2023-05-09 14:01:00,120.295,120.295,120.295,120.295,123.0,ATR
2023-05-09 14:00:00,120.3,120.3,120.295,120.295,223.0,ATR
2023-05-09 13:58:00,120.32,120.32,120.255,120.255,502.0,ATR
2023-05-09 13:57:00,120.345,120.345,120.345,120.345,104.0,ATR
2023-05-09 13:56:00,120.36,120.36,120.36,120.36,469.0,ATR
2023-05-09 13:55:00,120.38,120.44,120.33,120.385,1789.0,ATR
2023-05-09 13:54:00,120.305,120.305,120.305,120.305,106.0,ATR
2023-05-09 13:52:00,120.315,120.315,120.315,120.315,145.0,ATR
2023-05-09 13:50:00,120.305,120.305,120.305,120.305,309.0,ATR
2023-05-09 13:49:00,120.34,120.34,120.25,120.25,671.0,ATR
2023-05-09 13:46:00,120.25,120.265,120.25,120.265,542.0,ATR
2023-05-09 13:44:00,120.27,120.27,120.27,120.27,140.0,ATR
2023-05-09 13:43:00,120.4,120.4,120.27,120.27,1423.0,ATR
2023-05-09 13:42:00,120.45,120.45,120.445,120.445,428.0,ATR
2023-05-09 13:39:00,120.445,120.455,120.445,120.455,214.0,ATR
2023-05-09 13:37:00,120.42,120.42,120.42,120.42,103.0,ATR
2023-05-09 13:36:00,120.42,120.47,120.38,120.425,1012.0,ATR
2023-05-09 13:35:00,120.36,120.36,120.36,120.36,152.0,ATR
2023-05-09 13:34:00,120.445,120.445,120.2907,120.2907,3814.0,ATR
2023-05-09 13:33:00,120.46,120.46,120.46,120.46,135.0,ATR
2023-05-09 13:31:00,120.47,120.47,120.47,120.47,101.0,ATR
2023-05-09 13:30:00,120.39,120.39,120.39,120.39,379.0,ATR
2023-05-09 13:27:00,120.315,120.315,120.315,120.315,102.0,ATR
2023-05-09 13:26:00,120.31,120.315,120.31,120.315,379.0,ATR
2023-05-09 13:25:00,120.305,120.305,120.305,120.305,456.0,ATR
2023-05-09 13:21:00,120.27,120.29,120.25,120.25,813.0,ATR
2023-05-09 13:20:00,120.22,120.22,120.21,120.21,1023.0,ATR
2023-05-09 13:19:00,120.26,120.26,120.22,120.22,202.0,ATR
2023-05-09 13:15:00,120.2699,120.2699,120.19,120.19,549.0,ATR
2023-05-09 13:11:00,120.205,120.205,120.205,120.205,190.0,ATR
2023-05-09 13:08:00,120.21,120.21,120.21,120.21,332.0,ATR
2023-05-09 13:04:00,120.22,120.22,120.22,120.22,261.0,ATR
2023-05-09 13:02:00,120.2,120.2,120.2,120.2,731.0,ATR
2023-05-09 12:59:00,120.115,120.12,120.115,120.12,258.0,ATR
2023-05-09 12:55:00,120.06,120.125,120.06,120.125,1071.0,ATR
2023-05-09 12:54:00,120.06,120.06,120.06,120.06,102.0,ATR
2023-05-09 12:50:00,120.01,120.01,120.01,120.01,103.0,ATR
2023-05-09 12:49:00,120.0,120.0,120.0,120.0,182.0,ATR
2023-05-09 12:46:00,120.015,120.015,120.015,120.015,256.0,ATR
2023-05-09 12:44:00,120.055,120.055,120.055,120.055,371.0,ATR
2023-05-09 12:42:00,120.035,120.035,120.035,120.035,111.0,ATR
2023-05-09 12:40:00,119.98,119.98,119.98,119.98,259.0,ATR
2023-05-09 12:38:00,120.09,120.09,120.09,120.09,101.0,ATR
2023-05-09 12:34:00,120.15,120.15,120.1,120.1,1015.0,ATR
2023-05-09 12:33:00,120.07,120.07,120.035,120.035,215.0,ATR
2023-05-09 12:32:00,120.01,120.01,120.01,120.01,154.0,ATR
2023-05-09 12:29:00,120.095,120.095,120.095,120.095,202.0,ATR
2023-05-09 12:26:00,120.15,120.15,120.15,120.15,112.0,ATR
2023-05-09 12:25:00,120.15,120.15,120.125,120.125,453.0,ATR
2023-05-09 12:24:00,120.165,120.165,120.165,120.165,699.0,ATR
2023-05-09 12:23:00,120.14,120.23,120.14,120.23,808.0,ATR
2023-05-09 12:22:00,120.18,120.18,120.18,120.18,113.0,ATR
2023-05-09 12:20:00,120.16,120.16,120.16,120.16,487.0,ATR
2023-05-09 12:18:00,120.225,120.225,120.225,120.225,105.0,ATR
2023-05-09 12:15:00,120.175,120.175,120.175,120.175,374.0,ATR
2023-05-09 12:14:00,120.1101,120.1101,120.1101,120.1101,481.0,ATR
2023-05-09 12:13:00,120.2,120.2,120.11,120.11,561.0,ATR
2023-05-09 12:10:00,120.16,120.27,120.16,120.27,2208.0,ATR
2023-05-09 12:09:00,120.21,120.21,120.21,120.21,465.0,ATR
2023-05-09 12:08:00,120.24,120.24,120.21,120.21,222.0,ATR
2023-05-09 12:07:00,120.38,120.39,120.24,120.24,1739.0,ATR
2023-05-09 12:06:00,120.285,120.36,120.285,120.36,717.0,ATR
2023-05-09 12:01:00,120.285,120.285,120.285,120.285,101.0,ATR
2023-05-09 12:00:00,120.2067,120.2067,120.2067,120.2067,365.0,ATR
2023-05-09 11:57:00,120.27,120.27,120.27,120.27,110.0,ATR
2023-05-09 11:55:00,120.27,120.27,120.27,120.27,243.0,ATR
2023-05-09 11:53:00,120.39,120.39,120.39,120.39,111.0,ATR
2023-05-09 11:50:00,120.34,120.34,120.34,120.34,250.0,ATR
2023-05-09 11:49:00,120.225,120.23,120.225,120.23,692.0,ATR
2023-05-09 11:48:00,120.2,120.2,120.2,120.2,102.0,ATR
2023-05-09 11:45:00,120.28,120.28,120.28,120.28,175.0,ATR
2023-05-09 11:42:00,120.25,120.25,120.25,120.25,302.0,ATR
2023-05-09 11:41:00,120.355,120.355,120.355,120.355,100.0,ATR
2023-05-09 11:37:00,120.335,120.335,120.335,120.335,289.0,ATR
2023-05-09 11:35:00,120.305,120.305,120.305,120.305,222.0,ATR
2023-05-09 11:33:00,120.29,120.29,120.29,120.29,101.0,ATR
2023-05-09 11:31:00,120.285,120.285,120.285,120.285,103.0,ATR
2023-05-09 11:29:00,120.21,120.21,120.21,120.21,720.0,ATR
2023-05-09 11:27:00,120.26,120.26,120.26,120.26,666.0,ATR
2023-05-09 11:24:00,120.42,120.42,120.42,120.42,102.0,ATR
2023-05-09 11:20:00,120.425,120.425,120.425,120.425,259.0,ATR
2023-05-09 11:19:00,120.36,120.49,120.36,120.425,1218.0,ATR
2023-05-09 11:16:00,120.415,120.415,120.2235,120.2235,398.0,ATR
2023-05-09 11:15:00,120.31,120.43,120.31,120.31,787.0,ATR
2023-05-09 11:12:00,120.31,120.31,120.31,120.31,1265.0,ATR
2023-05-09 11:11:00,120.485,120.485,120.485,120.485,218.0,ATR
2023-05-09 11:10:00,120.48,120.48,120.48,120.48,329.0,ATR
2023-05-09 11:09:00,120.64,120.64,120.63,120.63,575.0,ATR
2023-05-09 11:03:00,120.4021,120.4021,120.4021,120.4021,345.0,ATR
2023-05-09 11:01:00,120.25,120.36,120.13,120.36,5145.0,ATR
2023-05-09 10:56:00,119.94,120.12,119.9,120.12,3795.0,ATR
2023-05-09 10:55:00,119.865,119.93,119.86,119.86,697.0,ATR
2023-05-09 10:52:00,119.75,119.81,119.75,119.81,874.0,ATR
2023-05-09 10:51:00,119.7,119.705,119.7,119.705,300.0,ATR
2023-05-09 10:50:00,119.71,119.71,119.71,119.71,260.0,ATR
2023-05-09 10:47:00,119.72,119.72,119.72,119.72,558.0,ATR
2023-05-09 10:44:00,119.82,119.82,119.82,119.82,579.0,ATR
2023-05-09 10:42:00,119.8,119.8,119.8,119.8,125.0,ATR
2023-05-09 10:40:00,119.84,119.84,119.805,119.805,1406.0,ATR
2023-05-09 10:39:00,119.765,119.765,119.765,119.765,100.0,ATR
2023-05-09 10:38:00,119.82,119.82,119.82,119.82,108.0,ATR
2023-05-09 10:37:00,119.765,119.765,119.765,119.765,152.0,ATR
2023-05-09 10:36:00,119.69,119.69,119.69,119.69,242.0,ATR
2023-05-09 10:33:00,119.865,119.865,119.865,119.865,100.0,ATR
2023-05-09 10:32:00,119.93,119.93,119.865,119.865,751.0,ATR
2023-05-09 10:30:00,120.03,120.03,120.03,120.03,126.0,ATR
2023-05-09 10:27:00,119.935,119.935,119.935,119.935,112.0,ATR
2023-05-09 10:26:00,119.93,119.93,119.93,119.93,158.0,ATR
2023-05-09 10:25:00,119.97,119.97,119.91,119.925,1296.0,ATR
2023-05-09 10:24:00,120.05,120.05,120.05,120.05,929.0,ATR
2023-05-09 10:23:00,120.06,120.09,120.06,120.09,446.0,ATR
2023-05-09 10:22:00,119.95,120.035,119.95,120.035,244.0,ATR
2023-05-09 10:19:00,120.01,120.01,119.94,119.94,391.0,ATR
2023-05-09 10:17:00,120.06,120.06,120.06,120.06,127.0,ATR
2023-05-09 10:13:00,120.07,120.07,120.07,120.07,309.0,ATR
2023-05-09 10:10:00,120.01,120.01,120.01,120.01,102.0,ATR
2023-05-09 10:09:00,120.07,120.07,120.07,120.07,166.0,ATR
2023-05-09 10:07:00,120.01,120.01,120.01,120.01,251.0,ATR
2023-05-09 10:05:00,120.125,120.125,120.125,120.125,109.0,ATR
2023-05-09 10:04:00,120.18,120.18,120.18,120.18,538.0,ATR
2023-05-09 10:02:00,120.44,120.51,120.425,120.425,422.0,ATR
2023-05-09 10:01:00,120.57,120.57,120.57,120.57,100.0,ATR
2023-05-09 09:54:00,120.29,120.3,120.17,120.17,663.0,ATR
2023-05-09 09:53:00,120.25,120.25,120.105,120.105,655.0,ATR
2023-05-09 09:52:00,120.2,120.2,120.2,120.2,475.0,ATR
2023-05-09 09:51:00,120.4,120.4,120.4,120.4,200.0,ATR
2023-05-09 09:50:00,120.4,120.4,120.4,120.4,358.0,ATR
2023-05-09 09:49:00,120.37,120.37,120.37,120.37,134.0,ATR
2023-05-09 09:47:00,120.665,120.665,120.47,120.47,907.0,ATR
2023-05-09 09:45:00,120.84,120.84,120.84,120.84,102.0,ATR
2023-05-09 09:44:00,120.52,120.52,120.52,120.52,172.0,ATR
2023-05-09 09:37:00,121.03,121.03,121.03,121.03,264.0,ATR
2023-05-09 09:32:00,120.52,120.52,120.52,120.52,141.0,ATR
2023-05-09 09:31:00,120.51,120.51,120.51,120.51,360.0,ATR
2023-05-09 09:30:00,120.87,120.87,120.87,120.87,846.0,ATR
2023-05-08 16:00:00,121.5,121.5,121.5,121.5,3750.0,ATR
2023-05-08 15:59:00,121.48,121.54,121.48,121.49,5973.0,ATR
2023-05-08 15:58:00,121.53,121.55,121.48,121.48,4247.0,ATR
2023-05-08 15:57:00,121.565,121.565,121.48,121.555,2702.0,ATR
2023-05-08 15:56:00,121.545,121.64,121.5,121.56,3965.0,ATR
2023-05-08 15:55:00,121.5297,121.545,121.48,121.545,2251.0,ATR
2023-05-08 15:54:00,121.47,121.56,121.43,121.48,3100.0,ATR
2023-05-08 15:53:00,121.47,121.47,121.415,121.47,2271.0,ATR
2023-05-08 15:52:00,121.41,121.47,121.41,121.47,1737.0,ATR
2023-05-08 15:51:00,121.3135,121.39,121.3135,121.39,1497.0,ATR
2023-05-08 15:50:00,121.41,121.42,121.28,121.28,2568.0,ATR
2023-05-08 15:49:00,121.48,121.48,121.39,121.39,1372.0,ATR
2023-05-08 15:48:00,121.535,121.6,121.43,121.43,2955.0,ATR
2023-05-08 15:47:00,121.47,121.58,121.47,121.58,295.0,ATR
2023-05-08 15:46:00,121.69,121.69,121.55,121.55,3112.0,ATR
2023-05-08 15:45:00,121.675,121.7,121.67,121.68,1665.0,ATR
2023-05-08 15:44:00,121.66,121.71,121.66,121.66,817.0,ATR
2023-05-08 15:43:00,121.515,121.59,121.515,121.59,1098.0,ATR
2023-05-08 15:42:00,121.515,121.56,121.515,121.56,447.0,ATR
2023-05-08 15:41:00,121.47,121.51,121.47,121.51,1468.0,ATR
2023-05-08 15:39:00,121.425,121.425,121.425,121.425,284.0,ATR
2023-05-08 15:38:00,121.39,121.41,121.39,121.41,458.0,ATR
2023-05-08 15:37:00,121.3,121.31,121.3,121.31,440.0,ATR
2023-05-08 15:35:00,121.235,121.28,121.235,121.28,1056.0,ATR
2023-05-08 15:32:00,121.235,121.235,121.21,121.21,690.0,ATR
2023-05-08 15:31:00,121.215,121.25,121.215,121.215,2537.0,ATR
2023-05-08 15:30:00,121.22,121.24,121.22,121.24,718.0,ATR
2023-05-08 15:29:00,121.2,121.2,121.2,121.2,105.0,ATR
2023-05-08 15:28:00,121.205,121.205,121.205,121.205,211.0,ATR
2023-05-08 15:27:00,121.21,121.21,121.21,121.21,534.0,ATR
2023-05-08 15:26:00,121.17,121.17,121.17,121.17,127.0,ATR
2023-05-08 15:25:00,121.14,121.185,121.14,121.185,547.0,ATR
2023-05-08 15:23:00,121.185,121.185,121.185,121.185,138.0,ATR
2023-05-08 15:22:00,121.15,121.195,121.15,121.195,472.0,ATR
2023-05-08 15:21:00,121.15,121.18,121.15,121.18,823.0,ATR
2023-05-08 15:19:00,121.06,121.06,121.06,121.06,738.0,ATR
2023-05-08 15:18:00,120.875,120.96,120.875,120.96,586.0,ATR
2023-05-08 15:17:00,120.87,120.87,120.8,120.87,1109.0,ATR
2023-05-08 15:16:00,120.99,120.99,120.875,120.875,2198.0,ATR
2023-05-08 15:15:00,120.93,120.93,120.93,120.93,301.0,ATR
2023-05-08 15:14:00,120.93,120.93,120.93,120.93,102.0,ATR
2023-05-08 15:11:00,121.0,121.0,121.0,121.0,306.0,ATR
2023-05-08 15:10:00,121.095,121.095,121.0,121.02,1865.0,ATR
2023-05-08 15:09:00,121.08,121.1,121.06,121.095,931.0,ATR
2023-05-08 15:07:00,121.06,121.08,121.06,121.08,211.0,ATR
2023-05-08 15:05:00,121.025,121.06,121.025,121.06,420.0,ATR
2023-05-08 15:04:00,121.01,121.01,121.01,121.01,261.0,ATR
2023-05-08 15:03:00,121.02,121.02,121.015,121.015,414.0,ATR
2023-05-08 15:02:00,120.97,121.01,120.97,121.01,1195.0,ATR
2023-05-08 15:01:00,120.985,120.985,120.97,120.97,999.0,ATR
2023-05-08 15:00:00,121.01,121.01,121.0,121.0,510.0,ATR
2023-05-08 14:59:00,120.97,120.99,120.97,120.99,527.0,ATR
2023-05-08 14:55:00,120.93,120.94,120.93,120.94,441.0,ATR
2023-05-08 14:54:00,120.96,120.96,120.92,120.92,863.0,ATR
2023-05-08 14:50:00,120.965,120.99,120.96,120.98,667.0,ATR
2023-05-08 14:49:00,120.94,120.94,120.94,120.94,132.0,ATR
2023-05-08 14:48:00,120.93,120.935,120.93,120.93,949.0,ATR
2023-05-08 14:47:00,120.91,120.91,120.91,120.91,200.0,ATR
2023-05-08 14:45:00,120.93,120.93,120.82,120.82,944.0,ATR
2023-05-08 14:43:00,120.97,120.97,120.95,120.95,448.0,ATR
2023-05-08 14:42:00,120.905,120.96,120.905,120.96,1071.0,ATR
2023-05-08 14:39:00,120.88,120.88,120.82,120.82,341.0,ATR
2023-05-08 14:38:00,120.89,120.89,120.89,120.89,115.0,ATR
2023-05-08 14:35:00,120.85,120.85,120.84,120.84,680.0,ATR
2023-05-08 14:34:00,120.93,120.93,120.8501,120.8501,1498.0,ATR
2023-05-08 14:33:00,120.94,120.99,120.895,120.92,2107.0,ATR
2023-05-08 14:32:00,121.035,121.035,120.95,120.99,1302.0,ATR
2023-05-08 14:31:00,121.08,121.08,121.04,121.04,2089.0,ATR
2023-05-08 14:30:00,121.15,121.15,121.1,121.1,2987.0,ATR
2023-05-08 14:29:00,121.12,121.12,121.12,121.12,799.0,ATR
2023-05-08 14:25:00,121.11,121.11,121.05,121.05,1205.0,ATR
2023-05-08 14:23:00,121.115,121.115,121.115,121.115,453.0,ATR
2023-05-08 14:20:00,121.03,121.045,121.03,121.045,423.0,ATR
2023-05-08 14:19:00,121.09,121.09,121.09,121.09,371.0,ATR
2023-05-08 14:17:00,121.015,121.015,121.015,121.015,206.0,ATR
2023-05-08 14:16:00,121.04,121.04,120.995,120.995,521.0,ATR
2023-05-08 14:11:00,120.82,120.82,120.82,120.82,200.0,ATR
2023-05-08 14:09:00,120.66,120.8,120.66,120.66,1067.0,ATR
2023-05-08 14:08:00,120.66,120.66,120.66,120.66,271.0,ATR
2023-05-08 14:07:00,120.84,120.84,120.81,120.81,372.0,ATR
2023-05-08 14:06:00,121.06,121.06,120.94,120.94,778.0,ATR
2023-05-08 14:03:00,121.13,121.13,121.1,121.1,825.0,ATR
2023-05-08 14:02:00,121.18,121.18,121.155,121.155,510.0,ATR
2023-05-08 14:01:00,121.185,121.185,121.185,121.185,200.0,ATR
2023-05-08 14:00:00,121.185,121.185,121.185,121.185,496.0,ATR
2023-05-08 13:59:00,121.12,121.15,121.095,121.15,1263.0,ATR
2023-05-08 13:56:00,121.055,121.055,121.055,121.055,228.0,ATR
2023-05-08 13:54:00,121.045,121.045,121.045,121.045,100.0,ATR
2023-05-08 13:53:00,121.045,121.045,120.97,120.97,265.0,ATR
2023-05-08 13:50:00,121.07,121.07,121.07,121.07,208.0,ATR
2023-05-08 13:49:00,121.26,121.29,121.165,121.165,1747.0,ATR
2023-05-08 13:48:00,121.23,121.235,121.23,121.235,405.0,ATR
2023-05-08 13:47:00,121.22,121.22,121.22,121.22,300.0,ATR
2023-05-08 13:43:00,121.09,121.14,121.055,121.14,1766.0,ATR
2023-05-08 13:42:00,121.07,121.095,121.07,121.095,562.0,ATR
2023-05-08 13:41:00,121.1,121.1,121.07,121.07,218.0,ATR
2023-05-08 13:37:00,121.07,121.07,121.07,121.07,135.0,ATR
2023-05-08 13:35:00,121.08,121.08,121.08,121.08,100.0,ATR
2023-05-08 13:33:00,121.175,121.21,121.08,121.08,1535.0,ATR
2023-05-08 13:32:00,121.175,121.175,121.14,121.14,541.0,ATR
2023-05-08 13:31:00,121.17,121.17,121.17,121.17,192.0,ATR
2023-05-08 13:30:00,121.09,121.09,121.09,121.09,236.0,ATR
2023-05-08 13:28:00,121.12,121.12,121.12,121.12,420.0,ATR
2023-05-08 13:25:00,121.12,121.12,121.12,121.12,200.0,ATR
2023-05-08 13:24:00,121.17,121.17,121.07,121.07,775.0,ATR
2023-05-08 13:23:00,121.22,121.22,121.2,121.2,1048.0,ATR
2023-05-08 13:22:00,121.175,121.175,121.175,121.175,131.0,ATR
2023-05-08 13:21:00,121.175,121.175,121.175,121.175,306.0,ATR
2023-05-08 13:19:00,121.17,121.17,121.17,121.17,116.0,ATR
2023-05-08 13:18:00,121.05,121.05,121.04,121.04,253.0,ATR
2023-05-08 13:17:00,121.13,121.13,121.13,121.13,357.0,ATR
2023-05-08 13:16:00,121.21,121.21,121.07,121.12,2887.0,ATR
2023-05-08 13:14:00,121.22,121.22,121.22,121.22,488.0,ATR
2023-05-08 13:09:00,121.23,121.23,121.23,121.23,188.0,ATR
2023-05-08 13:08:00,121.23,121.23,121.23,121.23,109.0,ATR
2023-05-08 13:06:00,121.34,121.34,121.17,121.17,1417.0,ATR
2023-05-08 13:02:00,121.315,121.315,121.315,121.315,103.0,ATR
2023-05-08 13:01:00,121.29,121.29,121.29,121.29,524.0,ATR
2023-05-08 12:59:00,121.22,121.22,121.22,121.22,412.0,ATR
2023-05-08 12:58:00,121.245,121.245,121.245,121.245,117.0,ATR
2023-05-08 12:57:00,121.21,121.21,121.21,121.21,126.0,ATR
2023-05-08 12:55:00,121.1,121.18,121.1,121.18,707.0,ATR
2023-05-08 12:53:00,121.14,121.14,121.14,121.14,155.0,ATR
2023-05-08 12:52:00,121.14,121.14,121.14,121.14,200.0,ATR
2023-05-08 12:50:00,121.14,121.15,121.14,121.15,471.0,ATR
2023-05-08 12:48:00,121.07,121.07,121.04,121.04,577.0,ATR
2023-05-08 12:46:00,121.07,121.07,121.07,121.07,158.0,ATR
2023-05-08 12:43:00,121.065,121.065,121.065,121.065,763.0,ATR
2023-05-08 12:42:00,121.195,121.195,121.195,121.195,100.0,ATR
2023-05-08 12:39:00,121.21,121.21,121.21,121.21,106.0,ATR
2023-05-08 12:37:00,121.105,121.105,121.105,121.105,149.0,ATR
2023-05-08 12:35:00,121.07,121.07,121.05,121.05,457.0,ATR
2023-05-08 12:31:00,121.265,121.265,121.21,121.21,826.0,ATR
2023-05-08 12:30:00,121.28,121.325,121.28,121.325,564.0,ATR
2023-05-08 12:27:00,121.17,121.265,121.17,121.265,1019.0,ATR
2023-05-08 12:25:00,121.15,121.33,121.15,121.26,1764.0,ATR
2023-05-08 12:22:00,121.19,121.265,121.19,121.19,494.0,ATR
2023-05-08 12:20:00,121.19,121.19,121.19,121.19,140.0,ATR
2023-05-08 12:19:00,121.36,121.36,121.36,121.36,261.0,ATR
2023-05-08 12:18:00,121.32,121.34,121.2,121.265,1128.0,ATR
2023-05-08 12:17:00,121.345,121.345,121.345,121.345,367.0,ATR
2023-05-08 12:16:00,121.36,121.36,121.3,121.3,716.0,ATR
2023-05-08 12:12:00,121.435,121.435,121.435,121.435,183.0,ATR
2023-05-08 12:10:00,121.4729,121.4729,121.4729,121.4729,215.0,ATR
2023-05-08 12:06:00,121.455,121.455,121.42,121.42,340.0,ATR
2023-05-08 12:05:00,121.725,121.725,121.725,121.725,898.0,ATR
2023-05-08 12:01:00,121.76,121.76,121.715,121.745,1177.0,ATR
2023-05-08 12:00:00,121.835,121.835,121.835,121.835,165.0,ATR
2023-05-08 11:58:00,121.82,121.82,121.82,121.82,112.0,ATR
2023-05-08 11:57:00,121.765,121.765,121.765,121.765,670.0,ATR
2023-05-08 11:56:00,121.67,121.71,121.625,121.71,1574.0,ATR
2023-05-08 11:47:00,121.575,121.575,121.575,121.575,107.0,ATR
2023-05-08 11:46:00,121.555,121.69,121.555,121.68,981.0,ATR
2023-05-08 11:43:00,121.43,121.43,121.43,121.43,370.0,ATR
2023-05-08 11:40:00,121.34,121.35,121.34,121.35,796.0,ATR
2023-05-08 11:37:00,121.39,121.39,121.39,121.39,157.0,ATR
2023-05-08 11:36:00,121.6,121.61,121.51,121.51,4262.0,ATR
2023-05-08 11:35:00,121.72,121.72,121.7,121.7,516.0,ATR
2023-05-08 11:33:00,121.64,121.64,121.64,121.64,245.0,ATR
2023-05-08 11:32:00,121.66,121.665,121.66,121.665,290.0,ATR
2023-05-08 11:31:00,121.605,121.605,121.605,121.605,121.0,ATR
2023-05-08 11:30:00,121.61,121.61,121.61,121.61,160.0,ATR
2023-05-08 11:22:00,121.65,121.65,121.65,121.65,117.0,ATR
2023-05-08 11:19:00,121.425,121.54,121.425,121.54,907.0,ATR
2023-05-08 11:15:00,121.52,121.59,121.52,121.59,324.0,ATR
2023-05-08 11:13:00,121.68,121.68,121.62,121.62,767.0,ATR
2023-05-08 11:08:00,121.81,121.81,121.81,121.81,1001.0,ATR
2023-05-08 11:04:00,121.81,121.81,121.81,121.81,114.0,ATR
2023-05-08 11:03:00,121.81,121.81,121.81,121.81,114.0,ATR
2023-05-08 11:02:00,121.74,121.83,121.74,121.83,686.0,ATR
2023-05-08 10:58:00,121.6,121.715,121.6,121.715,328.0,ATR
2023-05-08 10:55:00,121.71,121.71,121.71,121.71,222.0,ATR
2023-05-08 10:54:00,121.63,121.63,121.63,121.63,134.0,ATR
2023-05-08 10:48:00,121.555,121.555,121.55,121.55,526.0,ATR
2023-05-08 10:46:00,121.555,121.555,121.555,121.555,100.0,ATR
2023-05-08 10:42:00,121.62,121.62,121.62,121.62,110.0,ATR
2023-05-08 10:41:00,121.64,121.64,121.62,121.62,545.0,ATR
2023-05-08 10:38:00,121.68,121.68,121.62,121.62,2829.0,ATR
2023-05-08 10:36:00,121.96,121.96,121.67,121.67,1578.0,ATR
2023-05-08 10:34:00,122.0,122.0,121.965,121.965,219.0,ATR
2023-05-08 10:32:00,121.96,121.96,121.96,121.96,172.0,ATR
2023-05-08 10:30:00,121.94,121.94,121.94,121.94,453.0,ATR
2023-05-08 10:29:00,121.77,121.84,121.77,121.84,683.0,ATR
2023-05-08 10:28:00,121.75,121.865,121.75,121.865,944.0,ATR
2023-05-08 10:27:00,121.635,121.7,121.635,121.7,304.0,ATR
2023-05-08 10:26:00,121.645,121.645,121.645,121.645,126.0,ATR
2023-05-08 10:25:00,121.66,121.66,121.66,121.66,157.0,ATR
2023-05-08 10:23:00,121.66,121.66,121.66,121.66,214.0,ATR
2023-05-08 10:21:00,121.965,121.965,121.92,121.92,909.0,ATR
2023-05-08 10:20:00,121.975,121.975,121.975,121.975,239.0,ATR
2023-05-08 10:17:00,122.085,122.085,122.085,122.085,549.0,ATR
2023-05-08 10:16:00,122.09,122.09,122.09,122.09,138.0,ATR
2023-05-08 10:15:00,122.13,122.14,122.13,122.14,344.0,ATR
2023-05-08 10:14:00,122.1,122.1,122.1,122.1,1058.0,ATR
2023-05-08 10:10:00,122.14,122.2,122.14,122.2,835.0,ATR
2023-05-08 10:08:00,122.155,122.26,122.155,122.26,230.0,ATR
2023-05-08 10:05:00,122.145,122.145,122.145,122.145,316.0,ATR
2023-05-08 10:01:00,122.145,122.145,122.145,122.145,101.0,ATR
2023-05-08 10:00:00,122.155,122.155,122.155,122.155,260.0,ATR
2023-05-08 09:59:00,121.87,122.13,121.87,122.13,963.0,ATR
2023-05-08 09:58:00,121.985,122.09,121.985,122.09,242.0,ATR
2023-05-08 09:54:00,121.99,121.99,121.99,121.99,107.0,ATR
2023-05-08 09:53:00,122.11,122.11,122.11,122.11,156.0,ATR
2023-05-08 09:50:00,121.995,122.12,121.83,122.12,347.0,ATR
2023-05-08 09:49:00,121.995,121.995,121.995,121.995,123.0,ATR
2023-05-08 09:48:00,121.995,121.995,121.995,121.995,119.0,ATR
2023-05-08 09:47:00,122.14,122.14,122.14,122.14,139.0,ATR
2023-05-08 09:44:00,122.18,122.18,122.18,122.18,112.0,ATR
2023-05-08 09:40:00,122.34,122.34,122.34,122.34,100.0,ATR
2023-05-08 09:37:00,121.955,121.955,121.955,121.955,307.0,ATR
2023-05-08 09:32:00,121.805,121.805,121.805,121.805,251.0,ATR
2023-05-08 09:30:00,121.86,122.0,121.86,122.0,3827.0,ATR
