date,1. open,2. high,3. low,4. close,5. volume,Ticker
2023-04-06 16:01:00,119.06,119.06,119.06,119.06,6574.0,ATR
2023-04-06 16:00:00,119.02,119.09,118.99,119.09,6737.0,ATR
2023-04-06 15:59:00,118.96,119.03,118.96,119.02,6013.0,ATR
2023-04-06 15:58:00,118.881,119.01,118.881,118.92,3406.0,ATR
2023-04-06 15:57:00,118.84,118.945,118.81,118.945,6817.0,ATR
2023-04-06 15:56:00,118.74,118.89,118.72,118.86,4054.0,ATR
2023-04-06 15:54:00,118.77,118.77,118.77,118.77,1232.0,ATR
2023-04-06 15:53:00,118.78,118.78,118.76,118.76,816.0,ATR
2023-04-06 15:52:00,118.7,118.81,118.7,118.765,1890.0,ATR
2023-04-06 15:51:00,118.73,118.73,118.73,118.73,834.0,ATR
2023-04-06 15:50:00,118.66,118.74,118.65,118.74,2514.0,ATR
2023-04-06 15:49:00,118.6,118.63,118.6,118.63,991.0,ATR
2023-04-06 15:48:00,118.68,118.68,118.68,118.68,692.0,ATR
2023-04-06 15:46:00,118.69,118.73,118.65,118.73,1273.0,ATR
2023-04-06 15:45:00,118.63,118.68,118.63,118.68,614.0,ATR
2023-04-06 15:44:00,118.66,118.69,118.66,118.69,359.0,ATR
2023-04-06 15:43:00,118.63,118.63,118.63,118.63,619.0,ATR
2023-04-06 15:42:00,118.69,118.69,118.69,118.69,220.0,ATR
2023-04-06 15:41:00,118.63,118.7,118.6,118.7,2476.0,ATR
2023-04-06 15:40:00,118.55,118.595,118.55,118.595,721.0,ATR
2023-04-06 15:39:00,118.59,118.59,118.56,118.56,358.0,ATR
2023-04-06 15:38:00,118.56,118.56,118.55,118.55,471.0,ATR
2023-04-06 15:37:00,118.64,118.64,118.64,118.64,807.0,ATR
2023-04-06 15:36:00,118.695,118.695,118.66,118.66,613.0,ATR
2023-04-06 15:35:00,118.69,118.69,118.654,118.654,523.0,ATR
2023-04-06 15:32:00,118.66,118.66,118.66,118.66,182.0,ATR
2023-04-06 15:31:00,118.68,118.7,118.64,118.64,1070.0,ATR
2023-04-06 15:30:00,118.551,118.64,118.55,118.595,2006.0,ATR
2023-04-06 15:29:00,118.56,118.56,118.55,118.55,319.0,ATR
2023-04-06 15:27:00,118.6,118.6,118.55,118.55,388.0,ATR
2023-04-06 15:25:00,118.62,118.62,118.62,118.62,738.0,ATR
2023-04-06 15:22:00,118.71,118.725,118.69,118.69,1324.0,ATR
2023-04-06 15:21:00,118.65,118.69,118.61,118.69,1367.0,ATR
2023-04-06 15:18:00,118.67,118.67,118.67,118.67,318.0,ATR
2023-04-06 15:17:00,118.67,118.67,118.67,118.67,175.0,ATR
2023-04-06 15:16:00,118.71,118.7659,118.71,118.7659,540.0,ATR
2023-04-06 15:14:00,118.72,118.72,118.72,118.72,433.0,ATR
2023-04-06 15:13:00,118.79,118.79,118.79,118.79,156.0,ATR
2023-04-06 15:12:00,118.835,118.835,118.835,118.835,416.0,ATR
2023-04-06 15:11:00,118.85,118.85,118.85,118.85,252.0,ATR
2023-04-06 15:08:00,119.02,119.02,118.9,118.9,1427.0,ATR
2023-04-06 15:07:00,119.02,119.02,119.02,119.02,107.0,ATR
2023-04-06 15:06:00,119.05,119.06,119.05,119.06,603.0,ATR
2023-04-06 15:04:00,119.015,119.015,119.015,119.015,159.0,ATR
2023-04-06 15:02:00,118.99,119.02,118.99,119.02,344.0,ATR
2023-04-06 15:01:00,118.93,118.99,118.93,118.99,831.0,ATR
2023-04-06 15:00:00,118.9,118.9,118.9,118.9,274.0,ATR
2023-04-06 14:59:00,118.85,118.92,118.83,118.92,1596.0,ATR
2023-04-06 14:58:00,118.8435,118.8435,118.83,118.83,520.0,ATR
2023-04-06 14:57:00,118.875,118.875,118.86,118.87,517.0,ATR
2023-04-06 14:56:00,118.89,118.89,118.86,118.875,2308.0,ATR
2023-04-06 14:55:00,118.94,118.94,118.94,118.94,163.0,ATR
2023-04-06 14:54:00,118.945,118.945,118.945,118.945,115.0,ATR
2023-04-06 14:51:00,118.91,118.91,118.91,118.91,291.0,ATR
2023-04-06 14:50:00,118.96,118.96,118.92,118.92,479.0,ATR
2023-04-06 14:46:00,118.92,118.92,118.92,118.92,120.0,ATR
2023-04-06 14:43:00,118.92,118.92,118.92,118.92,429.0,ATR
2023-04-06 14:40:00,118.98,118.98,118.98,118.98,319.0,ATR
2023-04-06 14:39:00,119.0,119.0,119.0,119.0,351.0,ATR
2023-04-06 14:38:00,118.88,118.9,118.86,118.9,915.0,ATR
2023-04-06 14:33:00,118.83,118.83,118.83,118.83,273.0,ATR
2023-04-06 14:32:00,118.805,118.805,118.79,118.79,316.0,ATR
2023-04-06 14:30:00,118.85,118.855,118.85,118.855,563.0,ATR
2023-04-06 14:21:00,118.76,118.76,118.76,118.76,327.0,ATR
2023-04-06 14:18:00,118.715,118.715,118.715,118.715,214.0,ATR
2023-04-06 14:14:00,118.71,118.71,118.71,118.71,210.0,ATR
2023-04-06 14:13:00,118.725,118.725,118.725,118.725,570.0,ATR
2023-04-06 14:11:00,118.675,118.675,118.675,118.675,468.0,ATR
2023-04-06 14:10:00,118.605,118.605,118.605,118.605,256.0,ATR
2023-04-06 14:04:00,118.55,118.59,118.55,118.59,1155.0,ATR
2023-04-06 14:03:00,118.44,118.44,118.44,118.44,102.0,ATR
2023-04-06 14:02:00,118.48,118.48,118.48,118.48,156.0,ATR
2023-04-06 13:48:00,118.56,118.56,118.56,118.56,252.0,ATR
2023-04-06 13:44:00,118.44,118.44,118.44,118.44,183.0,ATR
2023-04-06 13:40:00,118.75,118.75,118.68,118.68,310.0,ATR
2023-04-06 13:34:00,118.72,118.72,118.71,118.71,351.0,ATR
2023-04-06 13:33:00,118.815,118.815,118.77,118.77,588.0,ATR
2023-04-06 13:31:00,118.75,118.75,118.75,118.75,276.0,ATR
2023-04-06 13:30:00,118.7,118.71,118.7,118.71,596.0,ATR
2023-04-06 13:29:00,118.67,118.67,118.67,118.67,627.0,ATR
2023-04-06 13:24:00,118.75,118.75,118.75,118.75,100.0,ATR
2023-04-06 13:23:00,118.765,118.765,118.765,118.765,313.0,ATR
2023-04-06 13:21:00,118.71,118.74,118.71,118.74,619.0,ATR
2023-04-06 13:20:00,118.75,118.76,118.75,118.76,618.0,ATR
2023-04-06 13:17:00,118.88,118.88,118.88,118.88,141.0,ATR
2023-04-06 13:11:00,118.795,118.795,118.795,118.795,184.0,ATR
2023-04-06 13:09:00,118.78,118.78,118.78,118.78,243.0,ATR
2023-04-06 13:08:00,118.83,118.83,118.8,118.8,887.0,ATR
2023-04-06 13:03:00,118.73,118.74,118.73,118.74,827.0,ATR
2023-04-06 13:01:00,118.675,118.675,118.675,118.675,138.0,ATR
2023-04-06 12:59:00,118.655,118.655,118.655,118.655,298.0,ATR
2023-04-06 12:52:00,118.7,118.71,118.7,118.71,546.0,ATR
2023-04-06 12:47:00,118.62,118.62,118.62,118.62,470.0,ATR
2023-04-06 12:43:00,118.69,118.69,118.68,118.68,472.0,ATR
2023-04-06 12:34:00,118.66,118.66,118.66,118.66,562.0,ATR
2023-04-06 12:33:00,118.6,118.67,118.6,118.67,1725.0,ATR
2023-04-06 12:24:00,118.585,118.585,118.58,118.58,627.0,ATR
2023-04-06 12:21:00,118.55,118.55,118.51,118.51,834.0,ATR
2023-04-06 12:17:00,118.61,118.61,118.53,118.53,556.0,ATR
2023-04-06 12:15:00,118.51,118.52,118.49,118.49,1050.0,ATR
2023-04-06 12:05:00,118.38,118.38,118.38,118.38,738.0,ATR
2023-04-06 12:01:00,118.48,118.48,118.46,118.46,386.0,ATR
2023-04-06 11:56:00,118.355,118.36,118.355,118.36,477.0,ATR
2023-04-06 11:51:00,118.28,118.28,118.28,118.28,150.0,ATR
2023-04-06 11:50:00,118.28,118.28,118.28,118.28,525.0,ATR
2023-04-06 11:48:00,117.98,118.3,117.98,118.3,1948.0,ATR
2023-04-06 11:41:00,117.93,117.93,117.93,117.93,313.0,ATR
2023-04-06 11:34:00,118.18,118.18,118.1,118.1,1137.0,ATR
2023-04-06 11:33:00,118.18,118.18,118.18,118.18,239.0,ATR
2023-04-06 11:29:00,118.25,118.25,118.25,118.25,241.0,ATR
2023-04-06 11:21:00,118.2,118.2,118.2,118.2,118.0,ATR
2023-04-06 11:11:00,118.4,118.4,118.35,118.35,933.0,ATR
2023-04-06 11:02:00,118.25,118.33,118.25,118.31,914.0,ATR
2023-04-06 10:53:00,118.31,118.31,118.31,118.31,140.0,ATR
2023-04-06 10:50:00,118.38,118.38,118.32,118.32,986.0,ATR
2023-04-06 10:44:00,118.43,118.43,118.34,118.34,591.0,ATR
2023-04-06 10:39:00,118.51,118.51,118.51,118.51,808.0,ATR
2023-04-06 10:38:00,118.5,118.5,118.5,118.5,996.0,ATR
2023-04-06 10:37:00,118.51,118.51,118.5,118.5,383.0,ATR
2023-04-06 10:35:00,118.48,118.48,118.48,118.48,599.0,ATR
2023-04-06 10:31:00,118.4,118.4,118.4,118.4,161.0,ATR
2023-04-06 10:30:00,118.27,118.43,118.27,118.415,1636.0,ATR
2023-04-06 10:25:00,118.32,118.32,118.32,118.32,462.0,ATR
2023-04-06 10:23:00,118.43,118.44,118.43,118.44,870.0,ATR
2023-04-06 10:12:00,118.56,118.57,118.53,118.53,1823.0,ATR
2023-04-06 09:57:00,118.44,118.44,118.44,118.44,165.0,ATR
2023-04-06 09:56:00,118.5,118.5,118.5,118.5,124.0,ATR
2023-04-06 09:50:00,118.71,118.71,118.71,118.71,102.0,ATR
2023-04-06 09:35:00,118.82,118.82,118.82,118.82,190.0,ATR
2023-04-06 09:31:00,119.34,119.34,119.34,119.34,1335.0,ATR
2023-04-05 16:01:00,119.08,119.08,119.08,119.08,2991.0,ATR
2023-04-05 16:00:00,119.14,119.2,119.02,119.1,12150.0,ATR
2023-04-05 15:59:00,119.05,119.13,119.05,119.13,3159.0,ATR
2023-04-05 15:58:00,118.96,119.08,118.96,119.08,1668.0,ATR
2023-04-05 15:57:00,118.895,119.04,118.89,119.0,5450.0,ATR
2023-04-05 15:56:00,118.84,118.92,118.82,118.92,2956.0,ATR
2023-04-05 15:55:00,118.855,118.96,118.855,118.96,940.0,ATR
2023-04-05 15:54:00,119.05,119.05,118.91,118.91,1975.0,ATR
2023-04-05 15:53:00,119.15,119.15,119.1,119.1,1427.0,ATR
2023-04-05 15:52:00,119.1,119.17,119.04,119.09,4761.0,ATR
2023-04-05 15:51:00,119.07,119.07,119.07,119.07,550.0,ATR
2023-04-05 15:50:00,118.99,118.99,118.86,118.86,1523.0,ATR
2023-04-05 15:49:00,118.84,118.86,118.82,118.82,1227.0,ATR
2023-04-05 15:48:00,118.84,118.84,118.755,118.81,2020.0,ATR
2023-04-05 15:47:00,118.8,118.84,118.77,118.84,2140.0,ATR
2023-04-05 15:46:00,118.86,118.86,118.84,118.84,2140.0,ATR
2023-04-05 15:45:00,118.755,118.81,118.755,118.81,1169.0,ATR
2023-04-05 15:44:00,118.69,118.69,118.69,118.69,373.0,ATR
2023-04-05 15:43:00,118.76,118.76,118.73,118.74,1214.0,ATR
2023-04-05 15:42:00,118.63,118.7,118.63,118.69,1579.0,ATR
2023-04-05 15:41:00,118.63,118.63,118.58,118.63,1498.0,ATR
2023-04-05 15:40:00,118.6,118.65,118.6,118.63,1362.0,ATR
2023-04-05 15:39:00,118.59,118.59,118.59,118.59,648.0,ATR
2023-04-05 15:38:00,118.605,118.645,118.605,118.645,1064.0,ATR
2023-04-05 15:36:00,118.61,118.61,118.605,118.605,787.0,ATR
2023-04-05 15:35:00,118.55,118.6,118.55,118.6,876.0,ATR
2023-04-05 15:33:00,118.55,118.55,118.545,118.545,1079.0,ATR
2023-04-05 15:32:00,118.455,118.56,118.455,118.56,2073.0,ATR
2023-04-05 15:30:00,118.5,118.5,118.31,118.31,2861.0,ATR
2023-04-05 15:29:00,118.5,118.53,118.5,118.505,869.0,ATR
2023-04-05 15:28:00,118.47,118.47,118.46,118.46,781.0,ATR
2023-04-05 15:26:00,118.45,118.48,118.45,118.48,1077.0,ATR
2023-04-05 15:23:00,118.33,118.37,118.33,118.37,1200.0,ATR
2023-04-05 15:21:00,118.3,118.32,118.26,118.26,833.0,ATR
2023-04-05 15:18:00,118.38,118.38,118.21,118.25,1676.0,ATR
2023-04-05 15:17:00,118.35,118.47,118.35,118.395,1535.0,ATR
2023-04-05 15:15:00,118.32,118.37,118.32,118.37,740.0,ATR
2023-04-05 15:12:00,118.27,118.31,118.25,118.31,571.0,ATR
2023-04-05 15:11:00,118.25,118.25,118.25,118.25,335.0,ATR
2023-04-05 15:09:00,118.28,118.3,118.24,118.3,798.0,ATR
2023-04-05 15:08:00,118.26,118.26,118.24,118.24,226.0,ATR
2023-04-05 15:06:00,118.35,118.35,118.35,118.35,679.0,ATR
2023-04-05 15:04:00,118.32,118.33,118.265,118.3,893.0,ATR
2023-04-05 15:02:00,118.33,118.33,118.25,118.27,948.0,ATR
2023-04-05 15:01:00,118.5,118.5,118.42,118.42,215.0,ATR
2023-04-05 15:00:00,118.43,118.47,118.38,118.46,616.0,ATR
2023-04-05 14:58:00,118.36,118.36,118.235,118.29,681.0,ATR
2023-04-05 14:57:00,118.28,118.28,118.28,118.28,132.0,ATR
2023-04-05 14:55:00,118.41,118.41,118.41,118.41,618.0,ATR
2023-04-05 14:54:00,118.34,118.34,118.34,118.34,290.0,ATR
2023-04-05 14:53:00,118.42,118.42,118.42,118.42,760.0,ATR
2023-04-05 14:52:00,118.55,118.55,118.43,118.44,921.0,ATR
2023-04-05 14:49:00,118.49,118.54,118.49,118.54,602.0,ATR
2023-04-05 14:48:00,118.435,118.435,118.435,118.435,176.0,ATR
2023-04-05 14:46:00,118.47,118.48,118.47,118.47,550.0,ATR
2023-04-05 14:45:00,118.43,118.43,118.43,118.43,459.0,ATR
2023-04-05 14:43:00,118.46,118.47,118.4,118.47,2182.0,ATR
2023-04-05 14:42:00,118.34,118.34,118.34,118.34,230.0,ATR
2023-04-05 14:41:00,118.45,118.45,118.43,118.43,894.0,ATR
2023-04-05 14:40:00,118.4,118.43,118.4,118.43,700.0,ATR
2023-04-05 14:39:00,118.37,118.4,118.37,118.4,423.0,ATR
2023-04-05 14:38:00,118.38,118.38,118.35,118.35,1146.0,ATR
2023-04-05 14:37:00,118.44,118.5,118.44,118.44,1146.0,ATR
2023-04-05 14:36:00,118.38,118.38,118.38,118.38,126.0,ATR
2023-04-05 14:35:00,118.3801,118.39,118.38,118.38,597.0,ATR
2023-04-05 14:34:00,118.435,118.49,118.435,118.49,756.0,ATR
2023-04-05 14:33:00,118.38,118.38,118.38,118.38,113.0,ATR
2023-04-05 14:32:00,118.48,118.48,118.48,118.48,487.0,ATR
2023-04-05 14:31:00,118.35,118.44,118.34,118.44,1511.0,ATR
2023-04-05 14:29:00,118.32,118.36,118.32,118.34,725.0,ATR
2023-04-05 14:28:00,118.34,118.3407,118.22,118.26,3443.0,ATR
2023-04-05 14:26:00,118.43,118.46,118.34,118.34,903.0,ATR
2023-04-05 14:25:00,118.355,118.43,118.355,118.43,255.0,ATR
2023-04-05 14:23:00,118.44,118.46,118.345,118.345,730.0,ATR
2023-04-05 14:22:00,118.39,118.46,118.3,118.37,1999.0,ATR
2023-04-05 14:20:00,118.6,118.6,118.56,118.56,484.0,ATR
2023-04-05 14:18:00,118.55,118.56,118.55,118.56,691.0,ATR
2023-04-05 14:17:00,118.57,118.66,118.57,118.66,705.0,ATR
2023-04-05 14:16:00,118.53,118.53,118.53,118.53,322.0,ATR
2023-04-05 14:15:00,118.52,118.52,118.5,118.52,741.0,ATR
2023-04-05 14:14:00,118.41,118.5,118.41,118.5,799.0,ATR
2023-04-05 14:13:00,118.41,118.41,118.41,118.41,421.0,ATR
2023-04-05 14:12:00,118.53,118.53,118.52,118.52,408.0,ATR
2023-04-05 14:11:00,118.495,118.495,118.495,118.495,256.0,ATR
2023-04-05 14:10:00,118.5,118.52,118.43,118.43,1752.0,ATR
2023-04-05 14:09:00,118.59,118.68,118.59,118.68,218.0,ATR
2023-04-05 14:08:00,118.55,118.56,118.55,118.56,889.0,ATR
2023-04-05 14:06:00,118.4,118.4,118.37,118.4,1037.0,ATR
2023-04-05 14:03:00,118.33,118.37,118.26,118.32,1124.0,ATR
2023-04-05 14:02:00,118.285,118.285,118.255,118.255,257.0,ATR
2023-04-05 14:00:00,118.27,118.29,118.26,118.275,911.0,ATR
2023-04-05 13:57:00,118.23,118.25,118.19,118.25,542.0,ATR
2023-04-05 13:55:00,118.16,118.16,118.16,118.16,600.0,ATR
2023-04-05 13:54:00,118.15,118.18,118.15,118.18,713.0,ATR
2023-04-05 13:53:00,118.17,118.17,118.17,118.17,222.0,ATR
2023-04-05 13:51:00,117.98,118.14,117.98,118.14,1309.0,ATR
2023-04-05 13:50:00,117.82,117.82,117.82,117.82,1607.0,ATR
2023-04-05 13:49:00,117.9888,117.9888,117.9888,117.9888,345.0,ATR
2023-04-05 13:48:00,117.99,117.99,117.99,117.99,485.0,ATR
2023-04-05 13:45:00,118.06,118.07,117.995,117.995,629.0,ATR
2023-04-05 13:43:00,117.93,118.02,117.93,118.02,847.0,ATR
2023-04-05 13:41:00,118.06,118.06,118.04,118.04,416.0,ATR
2023-04-05 13:40:00,118.06,118.21,118.06,118.21,832.0,ATR
2023-04-05 13:38:00,118.12,118.13,118.1,118.1,821.0,ATR
2023-04-05 13:37:00,118.07,118.08,117.99,118.08,1442.0,ATR
2023-04-05 13:35:00,118.07,118.07,118.07,118.07,515.0,ATR
2023-04-05 13:34:00,118.2,118.21,118.13,118.13,509.0,ATR
2023-04-05 13:32:00,118.13,118.13,118.13,118.13,486.0,ATR
2023-04-05 13:31:00,118.22,118.23,118.19,118.19,772.0,ATR
2023-04-05 13:28:00,118.23,118.23,118.17,118.17,711.0,ATR
2023-04-05 13:26:00,118.05,118.05,118.05,118.05,120.0,ATR
2023-04-05 13:25:00,118.19,118.25,118.13,118.13,1302.0,ATR
2023-04-05 13:22:00,118.19,118.22,118.16,118.22,536.0,ATR
2023-04-05 13:20:00,118.18,118.18,118.07,118.07,612.0,ATR
2023-04-05 13:17:00,118.19,118.19,118.06,118.06,1052.0,ATR
2023-04-05 13:16:00,117.94,117.94,117.94,117.94,134.0,ATR
2023-04-05 13:15:00,118.06,118.06,118.06,118.06,100.0,ATR
2023-04-05 13:14:00,118.2,118.24,118.1,118.1,1754.0,ATR
2023-04-05 13:13:00,118.11,118.21,118.11,118.21,544.0,ATR
2023-04-05 13:11:00,118.17,118.18,118.14,118.14,694.0,ATR
2023-04-05 13:10:00,118.1,118.1,118.1,118.1,102.0,ATR
2023-04-05 13:09:00,118.17,118.17,118.11,118.11,631.0,ATR
2023-04-05 13:08:00,118.14,118.22,118.14,118.22,571.0,ATR
2023-04-05 13:07:00,118.09,118.09,118.09,118.09,625.0,ATR
2023-04-05 13:05:00,118.08,118.08,118.02,118.02,632.0,ATR
2023-04-05 13:02:00,117.94,118.04,117.92,117.92,1336.0,ATR
2023-04-05 12:59:00,118.1,118.1,117.975,117.975,802.0,ATR
2023-04-05 12:58:00,118.07,118.07,118.07,118.07,115.0,ATR
2023-04-05 12:57:00,117.94,118.02,117.9,118.02,586.0,ATR
2023-04-05 12:54:00,117.85,117.88,117.85,117.85,1352.0,ATR
2023-04-05 12:51:00,117.86,117.93,117.86,117.93,565.0,ATR
2023-04-05 12:50:00,117.77,117.77,117.77,117.77,299.0,ATR
2023-04-05 12:48:00,118.06,118.06,118.01,118.04,569.0,ATR
2023-04-05 12:46:00,117.99,117.99,117.99,117.99,605.0,ATR
2023-04-05 12:45:00,117.97,117.98,117.885,117.96,1003.0,ATR
2023-04-05 12:43:00,118.02,118.02,117.83,117.83,561.0,ATR
2023-04-05 12:41:00,117.88,117.88,117.88,117.88,124.0,ATR
2023-04-05 12:40:00,117.9,117.98,117.9,117.98,826.0,ATR
2023-04-05 12:35:00,117.86,117.86,117.86,117.86,103.0,ATR
2023-04-05 12:33:00,117.86,117.86,117.86,117.86,101.0,ATR
2023-04-05 12:31:00,118.07,118.07,118.07,118.07,170.0,ATR
2023-04-05 12:30:00,118.06,118.07,118.06,118.07,210.0,ATR
2023-04-05 12:25:00,118.01,118.01,118.01,118.01,494.0,ATR
2023-04-05 12:24:00,118.13,118.13,118.01,118.01,361.0,ATR
2023-04-05 12:22:00,118.02,118.02,118.02,118.02,139.0,ATR
2023-04-05 12:19:00,118.025,118.025,118.025,118.025,148.0,ATR
2023-04-05 12:18:00,118.04,118.04,118.04,118.04,908.0,ATR
2023-04-05 12:17:00,118.04,118.05,118.04,118.05,1206.0,ATR
2023-04-05 12:14:00,118.19,118.19,118.19,118.19,100.0,ATR
2023-04-05 12:11:00,118.17,118.17,118.05,118.13,798.0,ATR
2023-04-05 12:06:00,118.16,118.16,118.16,118.16,112.0,ATR
2023-04-05 12:02:00,118.1,118.1,118.1,118.1,133.0,ATR
2023-04-05 11:58:00,118.11,118.11,118.11,118.11,158.0,ATR
2023-04-05 11:56:00,118.1,118.1,118.1,118.1,307.0,ATR
2023-04-05 11:55:00,118.14,118.14,118.11,118.11,553.0,ATR
2023-04-05 11:54:00,118.14,118.14,118.14,118.14,253.0,ATR
2023-04-05 11:53:00,118.155,118.155,118.155,118.155,171.0,ATR
2023-04-05 11:52:00,118.235,118.235,118.235,118.235,113.0,ATR
2023-04-05 11:50:00,118.3625,118.3625,118.29,118.29,598.0,ATR
2023-04-05 11:49:00,118.29,118.29,118.29,118.29,164.0,ATR
2023-04-05 11:48:00,118.32,118.32,118.31,118.31,578.0,ATR
2023-04-05 11:46:00,118.2908,118.2908,118.2908,118.2908,260.0,ATR
2023-04-05 11:44:00,118.4,118.44,118.3,118.3,1665.0,ATR
2023-04-05 11:43:00,118.48,118.48,118.48,118.48,214.0,ATR
2023-04-05 11:42:00,118.48,118.48,118.47,118.47,230.0,ATR
2023-04-05 11:40:00,118.46,118.53,118.46,118.53,470.0,ATR
2023-04-05 11:39:00,118.37,118.37,118.37,118.37,214.0,ATR
2023-04-05 11:37:00,118.5,118.5,118.5,118.5,277.0,ATR
2023-04-05 11:34:00,118.38,118.38,118.34,118.34,669.0,ATR
2023-04-05 11:31:00,118.17,118.17,118.17,118.17,296.0,ATR
2023-04-05 11:28:00,118.34,118.34,118.25,118.25,2089.0,ATR
2023-04-05 11:26:00,118.31,118.31,118.31,118.31,259.0,ATR
2023-04-05 11:25:00,118.25,118.29,118.25,118.29,1631.0,ATR
2023-04-05 11:24:00,118.305,118.305,118.305,118.305,286.0,ATR
2023-04-05 11:22:00,118.25,118.31,118.25,118.31,1351.0,ATR
2023-04-05 11:20:00,118.14,118.16,118.1,118.16,749.0,ATR
2023-04-05 11:19:00,118.23,118.23,118.18,118.22,1514.0,ATR
2023-04-05 11:18:00,118.19,118.19,118.19,118.19,176.0,ATR
2023-04-05 11:17:00,118.16,118.16,118.155,118.155,423.0,ATR
2023-04-05 11:16:00,118.156,118.19,118.156,118.19,933.0,ATR
2023-04-05 11:14:00,118.08,118.08,117.9874,117.9874,569.0,ATR
2023-04-05 11:13:00,118.04,118.04,118.04,118.04,421.0,ATR
2023-04-05 11:12:00,118.075,118.18,118.075,118.11,1184.0,ATR
2023-04-05 11:11:00,118.085,118.085,118.085,118.085,113.0,ATR
2023-04-05 11:06:00,118.03,118.03,118.03,118.03,226.0,ATR
2023-04-05 11:02:00,118.22,118.22,118.22,118.22,166.0,ATR
2023-04-05 11:01:00,118.26,118.345,118.26,118.345,398.0,ATR
2023-04-05 10:58:00,118.27,118.27,118.27,118.27,120.0,ATR
2023-04-05 10:57:00,118.42,118.42,118.33,118.33,769.0,ATR
2023-04-05 10:56:00,118.43,118.46,118.43,118.46,916.0,ATR
2023-04-05 10:54:00,118.45,118.45,118.41,118.41,1396.0,ATR
2023-04-05 10:51:00,118.505,118.505,118.46,118.49,596.0,ATR
2023-04-05 10:50:00,118.59,118.59,118.48,118.5,2756.0,ATR
2023-04-05 10:48:00,118.67,118.67,118.67,118.67,420.0,ATR
2023-04-05 10:47:00,118.64,118.64,118.64,118.64,490.0,ATR
2023-04-05 10:46:00,118.6,118.6,118.6,118.6,814.0,ATR
2023-04-05 10:45:00,118.59,118.59,118.59,118.59,110.0,ATR
2023-04-05 10:44:00,118.68,118.68,118.6,118.625,851.0,ATR
2023-04-05 10:43:00,118.69,118.69,118.69,118.69,1300.0,ATR
2023-04-05 10:42:00,118.56,118.69,118.56,118.69,401.0,ATR
2023-04-05 10:41:00,118.62,118.6225,118.62,118.6225,237.0,ATR
2023-04-05 10:40:00,118.735,118.735,118.55,118.55,1934.0,ATR
2023-04-05 10:39:00,118.645,118.745,118.645,118.74,1323.0,ATR
2023-04-05 10:38:00,118.645,118.645,118.645,118.645,100.0,ATR
2023-04-05 10:37:00,118.66,118.66,118.66,118.66,135.0,ATR
2023-04-05 10:36:00,118.64,118.64,118.64,118.64,386.0,ATR
2023-04-05 10:35:00,118.6,118.6,118.6,118.6,975.0,ATR
2023-04-05 10:32:00,118.57,118.57,118.57,118.57,175.0,ATR
2023-04-05 10:31:00,118.45,118.5,118.45,118.5,1168.0,ATR
2023-04-05 10:30:00,118.3,118.3,118.3,118.3,1229.0,ATR
2023-04-05 10:29:00,118.4,118.4,118.38,118.38,210.0,ATR
2023-04-05 10:25:00,118.47,118.47,118.44,118.46,912.0,ATR
2023-04-05 10:24:00,118.29,118.29,118.275,118.275,200.0,ATR
2023-04-05 10:23:00,118.44,118.48,118.39,118.42,2462.0,ATR
2023-04-05 10:21:00,118.49,118.57,118.49,118.57,589.0,ATR
2023-04-05 10:20:00,118.51,118.53,118.45,118.45,1645.0,ATR
2023-04-05 10:19:00,118.51,118.51,118.46,118.46,603.0,ATR
2023-04-05 10:18:00,118.465,118.465,118.42,118.42,368.0,ATR
2023-04-05 10:17:00,118.46,118.6,118.46,118.49,2167.0,ATR
2023-04-05 10:15:00,118.45,118.47,118.39,118.47,402.0,ATR
2023-04-05 10:13:00,118.55,118.55,118.55,118.55,115.0,ATR
2023-04-05 10:12:00,118.4,118.465,118.4,118.465,1686.0,ATR
2023-04-05 10:11:00,118.305,118.305,118.212,118.3,1499.0,ATR
2023-04-05 10:07:00,118.17,118.17,118.17,118.17,232.0,ATR
2023-04-05 10:04:00,118.325,118.325,118.325,118.325,173.0,ATR
2023-04-05 10:03:00,118.36,118.39,118.265,118.265,1566.0,ATR
2023-04-05 10:01:00,118.52,118.53,118.43,118.43,1419.0,ATR
2023-04-05 10:00:00,118.47,118.47,118.43,118.43,259.0,ATR
2023-04-05 09:58:00,118.415,118.415,118.415,118.415,154.0,ATR
2023-04-05 09:57:00,118.31,118.31,118.31,118.31,284.0,ATR
2023-04-05 09:56:00,118.12,118.12,118.12,118.12,615.0,ATR
2023-04-05 09:54:00,118.145,118.145,118.145,118.145,145.0,ATR
2023-04-05 09:53:00,118.2,118.2,118.19,118.19,345.0,ATR
2023-04-05 09:52:00,118.35,118.35,118.35,118.35,244.0,ATR
2023-04-05 09:44:00,118.03,118.05,118.03,118.03,606.0,ATR
2023-04-05 09:41:00,117.87,117.87,117.87,117.87,117.0,ATR
2023-04-05 09:38:00,117.6623,117.6623,117.6623,117.6623,202.0,ATR
2023-04-05 09:33:00,117.23,117.23,117.23,117.23,153.0,ATR
2023-04-05 09:31:00,117.74,117.74,117.74,117.74,1017.0,ATR
2023-04-04 16:02:00,117.67,117.67,117.67,117.67,309.0,ATR
2023-04-04 16:01:00,117.67,117.67,117.67,117.67,5026.0,ATR
2023-04-04 16:00:00,117.52,117.68,117.52,117.68,18180.0,ATR
2023-04-04 15:59:00,117.57,117.58,117.51,117.52,3638.0,ATR
2023-04-04 15:58:00,117.525,117.6,117.5,117.6,4158.0,ATR
2023-04-04 15:57:00,117.5,117.54,117.5,117.54,2113.0,ATR
2023-04-04 15:56:00,117.43,117.49,117.43,117.49,1386.0,ATR
2023-04-04 15:55:00,117.41,117.41,117.41,117.41,917.0,ATR
2023-04-04 15:54:00,117.35,117.409,117.35,117.351,2509.0,ATR
2023-04-04 15:53:00,117.335,117.35,117.31,117.34,1589.0,ATR
2023-04-04 15:52:00,117.34,117.35,117.34,117.35,592.0,ATR
2023-04-04 15:51:00,117.24,117.3,117.24,117.3,1959.0,ATR
2023-04-04 15:50:00,117.2,117.2,117.19,117.19,641.0,ATR
2023-04-04 15:49:00,117.21,117.21,117.191,117.21,979.0,ATR
2023-04-04 15:48:00,117.215,117.215,117.18,117.185,1166.0,ATR
2023-04-04 15:47:00,117.25,117.25,117.18,117.18,1571.0,ATR
2023-04-04 15:46:00,117.3,117.3,117.27,117.27,748.0,ATR
2023-04-04 15:45:00,117.291,117.31,117.29,117.305,755.0,ATR
2023-04-04 15:44:00,117.3,117.345,117.3,117.345,891.0,ATR
2023-04-04 15:43:00,117.191,117.39,117.191,117.315,1775.0,ATR
2023-04-04 15:42:00,117.271,117.32,117.215,117.215,2272.0,ATR
2023-04-04 15:41:00,117.24,117.35,117.24,117.305,1087.0,ATR
2023-04-04 15:40:00,117.2,117.2,117.17,117.17,1008.0,ATR
2023-04-04 15:39:00,117.13,117.165,117.13,117.165,1490.0,ATR
2023-04-04 15:38:00,117.16,117.185,117.06,117.13,1867.0,ATR
2023-04-04 15:37:00,117.2,117.21,117.2,117.21,406.0,ATR
2023-04-04 15:36:00,116.89,117.21,116.89,117.14,2342.0,ATR
2023-04-04 15:35:00,116.87,116.87,116.87,116.87,240.0,ATR
2023-04-04 15:34:00,116.87,116.87,116.84,116.84,294.0,ATR
2023-04-04 15:31:00,116.82,116.885,116.82,116.885,698.0,ATR
2023-04-04 15:30:00,116.9,116.9,116.9,116.9,150.0,ATR
2023-04-04 15:25:00,116.94,116.94,116.94,116.94,674.0,ATR
2023-04-04 15:24:00,117.06,117.06,117.06,117.06,295.0,ATR
2023-04-04 15:21:00,117.02,117.02,117.02,117.02,171.0,ATR
2023-04-04 15:08:00,116.79,116.79,116.79,116.79,157.0,ATR
2023-04-04 15:06:00,116.92,116.92,116.92,116.92,275.0,ATR
2023-04-04 15:05:00,116.915,116.915,116.915,116.915,132.0,ATR
2023-04-04 15:04:00,116.88,116.88,116.88,116.88,494.0,ATR
2023-04-04 14:59:00,116.85,116.85,116.85,116.85,203.0,ATR
2023-04-04 14:57:00,116.965,116.965,116.91,116.93,582.0,ATR
2023-04-04 14:54:00,116.96,116.96,116.96,116.96,229.0,ATR
2023-04-04 14:51:00,116.99,116.99,116.99,116.99,920.0,ATR
2023-04-04 14:50:00,116.9899,116.9899,116.9899,116.9899,264.0,ATR
2023-04-04 14:41:00,116.96,116.96,116.96,116.96,100.0,ATR
2023-04-04 14:40:00,116.92,116.92,116.92,116.92,120.0,ATR
2023-04-04 14:38:00,116.88,116.95,116.88,116.95,415.0,ATR
2023-04-04 14:37:00,116.89,116.9,116.89,116.9,1099.0,ATR
2023-04-04 14:34:00,116.805,116.805,116.805,116.805,174.0,ATR
2023-04-04 14:33:00,116.78,116.78,116.78,116.78,111.0,ATR
2023-04-04 14:32:00,116.815,116.815,116.78,116.78,531.0,ATR
2023-04-04 14:25:00,116.83,116.83,116.83,116.83,182.0,ATR
2023-04-04 14:24:00,116.84,116.84,116.84,116.84,509.0,ATR
2023-04-04 14:18:00,116.97,116.97,116.9,116.9,348.0,ATR
2023-04-04 14:06:00,116.87,116.87,116.87,116.87,201.0,ATR
2023-04-04 14:02:00,116.88,116.98,116.88,116.98,603.0,ATR
2023-04-04 13:50:00,117.145,117.145,117.145,117.145,268.0,ATR
2023-04-04 13:42:00,117.26,117.26,117.26,117.26,107.0,ATR
2023-04-04 13:41:00,117.255,117.33,117.255,117.255,360.0,ATR
2023-04-04 13:37:00,117.34,117.34,117.34,117.34,277.0,ATR
2023-04-04 13:36:00,117.45,117.45,117.39,117.39,425.0,ATR
2023-04-04 13:35:00,117.44,117.44,117.44,117.44,523.0,ATR
2023-04-04 13:28:00,117.4,117.41,117.4,117.41,573.0,ATR
2023-04-04 13:27:00,117.32,117.4,117.32,117.4,1030.0,ATR
2023-04-04 13:25:00,117.3,117.3,117.3,117.3,467.0,ATR
2023-04-04 13:24:00,117.32,117.32,117.25,117.25,2302.0,ATR
2023-04-04 13:21:00,117.31,117.31,117.31,117.31,101.0,ATR
2023-04-04 13:16:00,117.24,117.24,117.24,117.24,1200.0,ATR
2023-04-04 13:14:00,117.16,117.16,117.16,117.16,124.0,ATR
2023-04-04 13:08:00,117.09,117.09,117.09,117.09,266.0,ATR
2023-04-04 13:07:00,117.1,117.1,117.09,117.09,986.0,ATR
2023-04-04 13:06:00,117.095,117.155,117.095,117.155,963.0,ATR
2023-04-04 13:05:00,117.11,117.11,117.11,117.11,1156.0,ATR
2023-04-04 13:04:00,117.115,117.115,117.105,117.11,403.0,ATR
2023-04-04 13:01:00,117.125,117.16,117.125,117.16,1511.0,ATR
2023-04-04 12:59:00,117.17,117.17,117.0,117.0,346.0,ATR
2023-04-04 12:56:00,117.01,117.01,117.0,117.0,243.0,ATR
2023-04-04 12:55:00,117.14,117.14,117.13,117.13,282.0,ATR
2023-04-04 12:53:00,117.34,117.34,117.24,117.24,1465.0,ATR
2023-04-04 12:50:00,117.375,117.375,117.375,117.375,412.0,ATR
2023-04-04 12:48:00,117.32,117.32,117.32,117.32,103.0,ATR
2023-04-04 12:45:00,117.275,117.34,117.275,117.34,298.0,ATR
2023-04-04 12:44:00,117.26,117.26,117.26,117.26,166.0,ATR
2023-04-04 12:42:00,117.25,117.25,117.25,117.25,258.0,ATR
2023-04-04 12:39:00,117.105,117.105,117.105,117.105,2771.0,ATR
2023-04-04 12:37:00,117.175,117.175,117.175,117.175,1399.0,ATR
2023-04-04 12:34:00,117.175,117.175,117.175,117.175,240.0,ATR
2023-04-04 12:31:00,117.175,117.175,117.175,117.175,114.0,ATR
2023-04-04 12:30:00,117.16,117.16,117.16,117.16,173.0,ATR
2023-04-04 12:26:00,117.15,117.15,117.15,117.15,148.0,ATR
2023-04-04 12:19:00,117.0,117.0,117.0,117.0,166.0,ATR
2023-04-04 12:17:00,117.07,117.08,117.07,117.08,485.0,ATR
2023-04-04 12:11:00,116.96,117.08,116.96,117.08,1215.0,ATR
2023-04-04 12:05:00,116.92,116.92,116.92,116.92,376.0,ATR
2023-04-04 12:04:00,116.93,116.93,116.92,116.92,304.0,ATR
2023-04-04 12:03:00,116.915,116.93,116.915,116.93,432.0,ATR
2023-04-04 11:54:00,117.285,117.285,117.05,117.06,1769.0,ATR
2023-04-04 11:53:00,117.36,117.36,117.285,117.285,3496.0,ATR
2023-04-04 11:52:00,117.395,117.395,117.395,117.395,230.0,ATR
2023-04-04 11:46:00,117.44,117.44,117.44,117.44,300.0,ATR
2023-04-04 11:44:00,117.42,117.42,117.42,117.42,701.0,ATR
2023-04-04 11:42:00,117.4925,117.4925,117.4925,117.4925,116.0,ATR
2023-04-04 11:41:00,117.5,117.5,117.5,117.5,186.0,ATR
2023-04-04 11:39:00,117.51,117.51,117.51,117.51,164.0,ATR
2023-04-04 11:36:00,117.48,117.48,117.48,117.48,478.0,ATR
2023-04-04 11:35:00,117.395,117.395,117.395,117.395,255.0,ATR
2023-04-04 11:33:00,117.3,117.32,117.3,117.32,455.0,ATR
2023-04-04 11:32:00,117.31,117.31,117.31,117.31,182.0,ATR
2023-04-04 11:30:00,117.29,117.29,117.29,117.29,232.0,ATR
2023-04-04 11:28:00,117.2608,117.3125,117.2608,117.3125,314.0,ATR
2023-04-04 11:25:00,117.2127,117.29,117.2127,117.29,346.0,ATR
2023-04-04 11:23:00,117.28,117.28,117.28,117.28,658.0,ATR
2023-04-04 11:21:00,117.29,117.29,117.29,117.29,363.0,ATR
2023-04-04 11:20:00,117.04,117.24,117.025,117.24,1407.0,ATR
2023-04-04 11:18:00,117.0,117.09,116.99,117.09,963.0,ATR
2023-04-04 11:17:00,117.095,117.095,117.095,117.095,207.0,ATR
2023-04-04 11:11:00,117.03,117.03,117.03,117.03,197.0,ATR
2023-04-04 11:10:00,117.21,117.21,117.21,117.21,327.0,ATR
2023-04-04 11:09:00,117.255,117.255,117.255,117.255,454.0,ATR
2023-04-04 11:07:00,117.3,117.3,117.3,117.3,237.0,ATR
2023-04-04 11:04:00,117.26,117.26,117.24,117.24,805.0,ATR
2023-04-04 10:59:00,117.25,117.25,117.25,117.25,179.0,ATR
2023-04-04 10:57:00,117.28,117.28,117.28,117.28,299.0,ATR
2023-04-04 10:56:00,117.265,117.265,117.265,117.265,156.0,ATR
2023-04-04 10:53:00,117.21,117.25,117.2,117.25,671.0,ATR
2023-04-04 10:49:00,117.33,117.33,117.33,117.33,133.0,ATR
2023-04-04 10:37:00,117.43,117.43,117.43,117.43,447.0,ATR
2023-04-04 10:27:00,117.4,117.4,117.4,117.4,694.0,ATR
2023-04-04 10:25:00,117.21,117.21,117.21,117.21,167.0,ATR
2023-04-04 10:23:00,117.12,117.12,117.12,117.12,101.0,ATR
2023-04-04 10:18:00,117.49,117.49,117.49,117.49,292.0,ATR
2023-04-04 10:12:00,117.37,117.37,117.37,117.37,279.0,ATR
2023-04-04 10:08:00,117.43,117.43,117.43,117.43,169.0,ATR
2023-04-04 10:02:00,117.63,117.63,117.63,117.63,314.0,ATR
2023-04-04 10:01:00,117.69,117.96,117.69,117.96,1500.0,ATR
2023-04-04 09:59:00,117.62,117.62,117.62,117.62,1721.0,ATR
2023-04-04 09:58:00,117.7916,117.7916,117.7916,117.7916,1501.0,ATR
2023-04-04 09:31:00,118.5,118.5,118.5,118.5,1047.0,ATR
2023-04-03 16:04:00,118.65,118.65,118.65,118.65,1246.0,ATR
2023-04-03 16:02:00,118.65,118.65,118.65,118.65,4150.0,ATR
2023-04-03 16:01:00,118.65,118.65,118.65,118.65,2653.0,ATR
2023-04-03 16:00:00,118.58,118.65,118.51,118.65,4922.0,ATR
2023-04-03 15:59:00,118.57,118.62,118.55,118.55,1581.0,ATR
2023-04-03 15:58:00,118.55,118.58,118.547,118.547,1423.0,ATR
2023-04-03 15:57:00,118.65,118.65,118.57,118.57,2732.0,ATR
2023-04-03 15:56:00,118.65,118.67,118.65,118.66,1124.0,ATR
2023-04-03 15:55:00,118.49,118.53,118.49,118.53,2096.0,ATR
2023-04-03 15:53:00,118.605,118.605,118.505,118.505,1111.0,ATR
2023-04-03 15:52:00,118.66,118.66,118.66,118.66,522.0,ATR
2023-04-03 15:51:00,118.63,118.63,118.62,118.62,1249.0,ATR
2023-04-03 15:50:00,118.67,118.69,118.66,118.69,1348.0,ATR
2023-04-03 15:49:00,118.555,118.64,118.555,118.64,1431.0,ATR
2023-04-03 15:48:00,118.575,118.575,118.575,118.575,946.0,ATR
2023-04-03 15:47:00,118.62,118.62,118.6,118.6,713.0,ATR
2023-04-03 15:46:00,118.68,118.68,118.64,118.64,1271.0,ATR
2023-04-03 15:44:00,118.68,118.68,118.68,118.68,677.0,ATR
2023-04-03 15:43:00,118.615,118.615,118.615,118.615,161.0,ATR
2023-04-03 15:41:00,118.595,118.64,118.56,118.58,2373.0,ATR
2023-04-03 15:40:00,118.775,118.775,118.61,118.66,1742.0,ATR
2023-04-03 15:39:00,118.76,118.81,118.66,118.71,1880.0,ATR
2023-04-03 15:38:00,118.67,118.67,118.67,118.67,1069.0,ATR
2023-04-03 15:37:00,118.585,118.59,118.54,118.59,2331.0,ATR
2023-04-03 15:36:00,118.54,118.61,118.54,118.61,723.0,ATR
2023-04-03 15:35:00,118.55,118.55,118.55,118.55,202.0,ATR
2023-04-03 15:33:00,118.5,118.5,118.5,118.5,562.0,ATR
2023-04-03 15:32:00,118.44,118.45,118.44,118.45,1118.0,ATR
2023-04-03 15:31:00,118.44,118.44,118.44,118.44,157.0,ATR
2023-04-03 15:26:00,118.4,118.4,118.4,118.4,303.0,ATR
2023-04-03 15:25:00,118.31,118.34,118.31,118.33,690.0,ATR
2023-04-03 15:22:00,118.225,118.225,118.225,118.225,137.0,ATR
2023-04-03 15:21:00,118.3,118.3,118.25,118.25,572.0,ATR
2023-04-03 15:20:00,118.33,118.33,118.33,118.33,161.0,ATR
2023-04-03 15:18:00,118.26,118.26,118.26,118.26,130.0,ATR
2023-04-03 15:17:00,118.33,118.33,118.3,118.3,1304.0,ATR
2023-04-03 15:14:00,118.36,118.36,118.36,118.36,376.0,ATR
2023-04-03 15:09:00,118.23,118.25,118.23,118.235,636.0,ATR
2023-04-03 15:08:00,118.22,118.22,118.15,118.175,1234.0,ATR
2023-04-03 15:05:00,118.33,118.33,118.33,118.33,109.0,ATR
2023-04-03 15:03:00,118.23,118.24,118.23,118.24,484.0,ATR
2023-04-03 15:01:00,118.1,118.1,118.1,118.1,869.0,ATR
2023-04-03 14:57:00,118.07,118.07,118.07,118.07,147.0,ATR
2023-04-03 14:56:00,118.02,118.02,118.02,118.02,245.0,ATR
2023-04-03 14:54:00,118.08,118.08,118.08,118.08,157.0,ATR
2023-04-03 14:52:00,118.07,118.13,118.07,118.13,519.0,ATR
2023-04-03 14:41:00,118.04,118.04,118.04,118.04,104.0,ATR
2023-04-03 14:40:00,118.065,118.065,118.065,118.065,151.0,ATR
2023-04-03 14:39:00,118.08,118.08,118.05,118.05,982.0,ATR
2023-04-03 14:38:00,118.125,118.14,118.09,118.09,825.0,ATR
2023-04-03 14:37:00,118.09,118.09,118.08,118.08,1335.0,ATR
2023-04-03 14:36:00,118.0571,118.06,118.055,118.055,604.0,ATR
2023-04-03 14:34:00,118.02,118.02,118.02,118.02,120.0,ATR
2023-04-03 14:33:00,118.02,118.02,118.02,118.02,227.0,ATR
2023-04-03 14:32:00,118.03,118.03,118.03,118.03,360.0,ATR
2023-04-03 14:30:00,118.03,118.03,118.03,118.03,115.0,ATR
2023-04-03 14:28:00,118.0,118.0,118.0,118.0,392.0,ATR
2023-04-03 14:27:00,118.02,118.02,117.97,117.97,204.0,ATR
2023-04-03 14:26:00,118.03,118.03,118.03,118.03,299.0,ATR
2023-04-03 14:25:00,118.01,118.01,118.005,118.005,246.0,ATR
2023-04-03 14:24:00,117.96,118.0,117.96,118.0,842.0,ATR
2023-04-03 14:23:00,117.92,117.92,117.92,117.92,340.0,ATR
2023-04-03 14:21:00,117.93,117.93,117.93,117.93,172.0,ATR
2023-04-03 14:19:00,117.93,117.95,117.93,117.95,452.0,ATR
2023-04-03 14:17:00,117.965,117.965,117.965,117.965,344.0,ATR
2023-04-03 14:16:00,117.93,117.93,117.93,117.93,292.0,ATR
2023-04-03 14:14:00,118.005,118.005,118.005,118.005,313.0,ATR
2023-04-03 14:13:00,117.96,117.96,117.96,117.96,623.0,ATR
2023-04-03 14:11:00,118.005,118.005,118.005,118.005,116.0,ATR
2023-04-03 14:10:00,118.01,118.01,118.01,118.01,113.0,ATR
2023-04-03 14:06:00,118.045,118.045,118.035,118.035,675.0,ATR
2023-04-03 14:03:00,117.995,117.995,117.995,117.995,158.0,ATR
2023-04-03 13:59:00,118.01,118.01,118.01,118.01,360.0,ATR
2023-04-03 13:57:00,117.92,117.94,117.92,117.94,1246.0,ATR
2023-04-03 13:55:00,117.83,117.83,117.83,117.83,125.0,ATR
2023-04-03 13:53:00,117.92,117.92,117.885,117.885,876.0,ATR
2023-04-03 13:49:00,117.92,117.92,117.92,117.92,221.0,ATR
2023-04-03 13:43:00,118.0,118.0,117.99,117.99,681.0,ATR
2023-04-03 13:32:00,118.05,118.05,118.05,118.05,482.0,ATR
2023-04-03 13:29:00,118.13,118.13,118.13,118.13,503.0,ATR
2023-04-03 13:28:00,118.083,118.11,118.05,118.095,1149.0,ATR
2023-04-03 13:27:00,118.135,118.135,118.135,118.135,312.0,ATR
2023-04-03 13:13:00,118.0772,118.0772,118.0772,118.0772,819.0,ATR
2023-04-03 13:10:00,118.17,118.17,118.17,118.17,663.0,ATR
2023-04-03 13:09:00,118.11,118.11,118.11,118.11,218.0,ATR
2023-04-03 12:58:00,118.0856,118.0856,118.08,118.08,484.0,ATR
2023-04-03 12:55:00,118.18,118.18,118.18,118.18,589.0,ATR
2023-04-03 12:52:00,118.275,118.275,118.275,118.275,593.0,ATR
2023-04-03 12:43:00,118.195,118.195,118.195,118.195,229.0,ATR
2023-04-03 12:41:00,118.23,118.23,118.23,118.23,173.0,ATR
2023-04-03 12:38:00,118.135,118.135,118.135,118.135,103.0,ATR
2023-04-03 12:33:00,118.17,118.17,118.17,118.17,112.0,ATR
2023-04-03 12:32:00,118.17,118.17,118.17,118.17,204.0,ATR
2023-04-03 12:31:00,118.085,118.085,118.085,118.085,221.0,ATR
2023-04-03 12:27:00,118.09,118.09,118.09,118.09,412.0,ATR
2023-04-03 12:26:00,118.08,118.08,118.08,118.08,176.0,ATR
2023-04-03 12:22:00,118.06,118.06,118.055,118.055,869.0,ATR
2023-04-03 12:18:00,118.205,118.205,118.2,118.2,804.0,ATR
2023-04-03 12:13:00,118.2,118.3,118.2,118.3,1067.0,ATR
2023-04-03 12:08:00,118.1,118.1,118.04,118.04,305.0,ATR
2023-04-03 12:04:00,118.16,118.16,118.16,118.16,511.0,ATR
2023-04-03 12:03:00,118.085,118.085,118.085,118.085,146.0,ATR
2023-04-03 12:02:00,118.13,118.14,118.09,118.1,3167.0,ATR
2023-04-03 12:01:00,118.11,118.18,118.11,118.18,3309.0,ATR
2023-04-03 12:00:00,118.01,118.01,118.01,118.01,166.0,ATR
2023-04-03 11:54:00,117.99,117.99,117.99,117.99,371.0,ATR
2023-04-03 11:51:00,118.05,118.05,118.05,118.05,166.0,ATR
2023-04-03 11:47:00,118.05,118.05,118.05,118.05,158.0,ATR
2023-04-03 11:40:00,118.05,118.05,118.05,118.05,267.0,ATR
2023-04-03 11:39:00,118.05,118.05,118.05,118.05,142.0,ATR
2023-04-03 11:37:00,118.11,118.11,118.05,118.05,508.0,ATR
2023-04-03 11:36:00,118.06,118.06,118.06,118.06,367.0,ATR
2023-04-03 11:34:00,117.95,117.99,117.95,117.99,682.0,ATR
2023-04-03 11:31:00,117.875,117.875,117.875,117.875,109.0,ATR
2023-04-03 11:23:00,117.89,117.89,117.89,117.89,368.0,ATR
2023-04-03 11:20:00,117.86,117.92,117.86,117.92,555.0,ATR
2023-04-03 11:17:00,117.69,117.79,117.68,117.79,1244.0,ATR
2023-04-03 11:15:00,117.7,117.7,117.7,117.7,327.0,ATR
2023-04-03 11:14:00,117.645,117.645,117.645,117.645,284.0,ATR
2023-04-03 11:13:00,117.83,117.83,117.77,117.77,631.0,ATR
2023-04-03 11:04:00,117.77,117.77,117.77,117.77,242.0,ATR
2023-04-03 11:00:00,117.745,117.745,117.745,117.745,445.0,ATR
2023-04-03 10:57:00,117.915,117.915,117.915,117.915,108.0,ATR
2023-04-03 10:56:00,118.0,118.075,117.96,117.96,2057.0,ATR
2023-04-03 10:53:00,117.8488,117.8488,117.8488,117.8488,382.0,ATR
2023-04-03 10:52:00,117.91,117.92,117.91,117.91,1594.0,ATR
2023-04-03 10:49:00,117.96,117.97,117.93,117.97,1093.0,ATR
2023-04-03 10:48:00,117.895,117.895,117.895,117.895,241.0,ATR
2023-04-03 10:45:00,118.075,118.075,118.075,118.075,134.0,ATR
2023-04-03 10:41:00,118.07,118.07,118.07,118.07,202.0,ATR
2023-04-03 10:39:00,118.285,118.285,118.27,118.285,365.0,ATR
2023-04-03 10:38:00,118.31,118.31,118.31,118.31,349.0,ATR
2023-04-03 10:37:00,118.39,118.39,118.34,118.36,548.0,ATR
2023-04-03 10:35:00,118.515,118.515,118.515,118.515,154.0,ATR
2023-04-03 10:29:00,118.3333,118.55,118.3333,118.54,1138.0,ATR
2023-04-03 10:26:00,118.45,118.5,118.45,118.5,575.0,ATR
2023-04-03 10:24:00,118.43,118.535,118.33,118.4,2276.0,ATR
2023-04-03 10:22:00,118.58,118.58,118.58,118.58,518.0,ATR
2023-04-03 10:11:00,118.23,118.23,118.23,118.23,396.0,ATR
2023-04-03 10:04:00,118.045,118.045,117.83,118.0375,1893.0,ATR
2023-04-03 10:03:00,118.02,118.02,118.02,118.02,202.0,ATR
2023-04-03 10:00:00,118.14,118.14,118.14,118.14,194.0,ATR
2023-04-03 09:55:00,118.13,118.13,118.13,118.13,467.0,ATR
2023-04-03 09:50:00,118.0001,118.0001,118.0001,118.0001,152.0,ATR
2023-04-03 09:47:00,118.18,118.18,118.18,118.18,325.0,ATR
2023-04-03 09:46:00,118.23,118.23,118.23,118.23,316.0,ATR
2023-04-03 09:45:00,118.38,118.38,118.365,118.365,1276.0,ATR
2023-04-03 09:42:00,118.19,118.19,118.19,118.19,254.0,ATR
2023-04-03 09:33:00,118.5956,118.5956,118.38,118.38,817.0,ATR
2023-04-03 09:31:00,117.93,117.93,117.93,117.93,927.0,ATR
2023-03-31 16:02:00,118.19,118.19,118.19,118.19,3951.0,ATR
2023-03-31 16:01:00,118.19,118.19,118.19,118.19,22668.0,ATR
2023-03-31 16:00:00,118.15,118.27,118.14,118.19,15458.0,ATR
2023-03-31 15:59:00,118.07,118.14,118.07,118.11,1818.0,ATR
2023-03-31 15:58:00,118.1,118.18,118.09,118.09,5133.0,ATR
2023-03-31 15:57:00,118.07,118.1,118.07,118.1,1354.0,ATR
2023-03-31 15:56:00,117.9,118.04,117.88,118.04,1768.0,ATR
2023-03-31 15:55:00,117.77,117.89,117.77,117.89,2255.0,ATR
2023-03-31 15:54:00,117.75,117.75,117.75,117.75,1239.0,ATR
2023-03-31 15:53:00,117.79,117.8,117.72,117.72,2552.0,ATR
2023-03-31 15:52:00,117.69,117.809,117.661,117.8,1522.0,ATR
2023-03-31 15:51:00,117.675,117.73,117.66,117.71,3237.0,ATR
2023-03-31 15:50:00,117.63,117.63,117.63,117.63,880.0,ATR
2023-03-31 15:49:00,117.52,117.6,117.52,117.6,1921.0,ATR
2023-03-31 15:47:00,117.45,117.45,117.45,117.45,1504.0,ATR
2023-03-31 15:46:00,117.4,117.41,117.39,117.39,2511.0,ATR
2023-03-31 15:44:00,117.42,117.51,117.42,117.51,792.0,ATR
2023-03-31 15:43:00,117.4,117.465,117.4,117.4,407.0,ATR
2023-03-31 15:41:00,117.38,117.38,117.38,117.38,698.0,ATR
2023-03-31 15:40:00,117.48,117.48,117.48,117.48,615.0,ATR
2023-03-31 15:38:00,117.44,117.535,117.44,117.535,1316.0,ATR
2023-03-31 15:37:00,117.5288,117.5288,117.5288,117.5288,767.0,ATR
2023-03-31 15:35:00,117.52,117.55,117.52,117.55,1394.0,ATR
2023-03-31 15:34:00,117.52,117.53,117.52,117.53,674.0,ATR
2023-03-31 15:32:00,117.59,117.59,117.59,117.59,659.0,ATR
2023-03-31 15:30:00,117.63,117.63,117.63,117.63,310.0,ATR
2023-03-31 15:29:00,117.65,117.65,117.65,117.65,372.0,ATR
2023-03-31 15:28:00,117.7,117.7,117.7,117.7,448.0,ATR
2023-03-31 15:27:00,117.71,117.76,117.71,117.76,880.0,ATR
2023-03-31 15:21:00,117.6,117.64,117.6,117.64,1952.0,ATR
2023-03-31 15:20:00,117.55,117.56,117.53,117.56,954.0,ATR
2023-03-31 15:19:00,117.58,117.58,117.58,117.58,149.0,ATR
2023-03-31 15:16:00,117.58,117.58,117.58,117.58,1051.0,ATR
2023-03-31 15:15:00,117.52,117.52,117.52,117.52,257.0,ATR
2023-03-31 15:14:00,117.53,117.53,117.53,117.53,232.0,ATR
2023-03-31 15:13:00,117.53,117.53,117.53,117.53,222.0,ATR
2023-03-31 15:12:00,117.55,117.55,117.55,117.55,284.0,ATR
2023-03-31 15:11:00,117.545,117.545,117.545,117.545,101.0,ATR
2023-03-31 15:08:00,117.605,117.605,117.605,117.605,627.0,ATR
2023-03-31 15:02:00,117.54,117.56,117.54,117.56,513.0,ATR
2023-03-31 15:00:00,117.455,117.455,117.455,117.455,125.0,ATR
2023-03-31 14:59:00,117.4,117.45,117.4,117.45,911.0,ATR
2023-03-31 14:58:00,117.315,117.315,117.315,117.315,144.0,ATR
2023-03-31 14:57:00,117.395,117.395,117.33,117.33,912.0,ATR
2023-03-31 14:54:00,117.405,117.415,117.405,117.415,472.0,ATR
2023-03-31 14:53:00,117.35,117.39,117.35,117.39,2325.0,ATR
2023-03-31 14:51:00,117.265,117.265,117.265,117.265,144.0,ATR
2023-03-31 14:49:00,117.31,117.31,117.31,117.31,106.0,ATR
2023-03-31 14:41:00,117.36,117.36,117.29,117.29,1241.0,ATR
2023-03-31 14:40:00,117.31,117.35,117.31,117.35,824.0,ATR
2023-03-31 14:38:00,117.35,117.35,117.35,117.35,486.0,ATR
2023-03-31 14:37:00,117.32,117.32,117.32,117.32,319.0,ATR
2023-03-31 14:36:00,117.27,117.27,117.27,117.27,297.0,ATR
2023-03-31 14:29:00,117.355,117.355,117.355,117.355,101.0,ATR
2023-03-31 14:27:00,117.37,117.37,117.37,117.37,134.0,ATR
2023-03-31 14:26:00,117.365,117.365,117.365,117.365,419.0,ATR
2023-03-31 14:25:00,117.535,117.54,117.43,117.43,1745.0,ATR
2023-03-31 14:23:00,117.5325,117.5325,117.5325,117.5325,193.0,ATR
2023-03-31 14:19:00,117.595,117.595,117.59,117.59,282.0,ATR
2023-03-31 14:18:00,117.595,117.595,117.595,117.595,146.0,ATR
2023-03-31 14:17:00,117.555,117.57,117.5525,117.57,466.0,ATR
2023-03-31 14:14:00,117.59,117.59,117.59,117.59,379.0,ATR
2023-03-31 14:08:00,117.65,117.65,117.64,117.64,533.0,ATR
2023-03-31 14:07:00,117.64,117.64,117.64,117.64,426.0,ATR
2023-03-31 14:02:00,117.56,117.56,117.56,117.56,175.0,ATR
2023-03-31 14:01:00,117.51,117.51,117.51,117.51,676.0,ATR
2023-03-31 13:57:00,117.426,117.426,117.426,117.426,249.0,ATR
2023-03-31 13:44:00,117.52,117.52,117.52,117.52,588.0,ATR
2023-03-31 13:42:00,117.58,117.58,117.58,117.58,200.0,ATR
2023-03-31 13:41:00,117.57,117.57,117.57,117.57,319.0,ATR
2023-03-31 13:40:00,117.49,117.49,117.49,117.49,716.0,ATR
2023-03-31 13:28:00,117.56,117.61,117.56,117.61,482.0,ATR
2023-03-31 13:23:00,117.58,117.58,117.58,117.58,475.0,ATR
2023-03-31 13:18:00,117.54,117.54,117.54,117.54,685.0,ATR
2023-03-31 13:14:00,117.53,117.53,117.53,117.53,723.0,ATR
2023-03-31 12:57:00,117.56,117.56,117.56,117.56,218.0,ATR
2023-03-31 12:56:00,117.55,117.57,117.55,117.57,892.0,ATR
2023-03-31 12:54:00,117.42,117.42,117.42,117.42,141.0,ATR
2023-03-31 12:50:00,117.51,117.51,117.51,117.51,108.0,ATR
2023-03-31 12:45:00,117.57,117.57,117.57,117.57,295.0,ATR
2023-03-31 12:41:00,117.62,117.62,117.62,117.62,597.0,ATR
2023-03-31 12:40:00,117.51,117.515,117.5,117.5,641.0,ATR
2023-03-31 12:39:00,117.49,117.58,117.49,117.58,468.0,ATR
2023-03-31 12:36:00,117.49,117.49,117.49,117.49,138.0,ATR
2023-03-31 12:35:00,117.54,117.54,117.54,117.54,110.0,ATR
2023-03-31 12:31:00,117.7,117.73,117.7,117.73,501.0,ATR
2023-03-31 12:28:00,117.74,117.74,117.74,117.74,364.0,ATR
2023-03-31 12:25:00,117.775,117.775,117.775,117.775,593.0,ATR
2023-03-31 12:21:00,117.74,117.74,117.74,117.74,561.0,ATR
2023-03-31 12:17:00,117.695,117.695,117.695,117.695,107.0,ATR
2023-03-31 12:13:00,117.62,117.62,117.605,117.605,235.0,ATR
2023-03-31 12:04:00,117.72,117.72,117.72,117.72,229.0,ATR
2023-03-31 12:02:00,117.67,117.67,117.64,117.64,682.0,ATR
2023-03-31 11:59:00,117.63,117.65,117.63,117.63,635.0,ATR
2023-03-31 11:56:00,117.61,117.67,117.61,117.67,462.0,ATR
2023-03-31 11:53:00,117.64,117.64,117.61,117.61,577.0,ATR
2023-03-31 11:52:00,117.645,117.645,117.61,117.62,1008.0,ATR
2023-03-31 11:51:00,117.68,117.68,117.68,117.68,101.0,ATR
2023-03-31 11:50:00,117.72,117.72,117.72,117.72,622.0,ATR
2023-03-31 11:49:00,117.66,117.66,117.66,117.66,100.0,ATR
2023-03-31 11:48:00,117.62,117.62,117.62,117.62,116.0,ATR
2023-03-31 11:45:00,117.65,117.65,117.61,117.635,555.0,ATR
2023-03-31 11:44:00,117.57,117.6,117.57,117.6,321.0,ATR
2023-03-31 11:42:00,117.55,117.55,117.55,117.55,106.0,ATR
2023-03-31 11:41:00,117.6,117.6,117.6,117.6,105.0,ATR
2023-03-31 11:38:00,117.57,117.57,117.57,117.57,109.0,ATR
2023-03-31 11:36:00,117.551,117.551,117.551,117.551,259.0,ATR
2023-03-31 11:33:00,117.46,117.47,117.46,117.47,344.0,ATR
2023-03-31 11:32:00,117.56,117.56,117.51,117.51,223.0,ATR
2023-03-31 11:27:00,117.755,117.755,117.65,117.65,1344.0,ATR
2023-03-31 11:24:00,117.71,117.71,117.71,117.71,218.0,ATR
2023-03-31 11:22:00,117.58,117.58,117.58,117.58,119.0,ATR
2023-03-31 11:21:00,117.58,117.58,117.58,117.58,103.0,ATR
2023-03-31 11:19:00,117.5,117.5,117.5,117.5,786.0,ATR
2023-03-31 11:09:00,117.355,117.355,117.355,117.355,101.0,ATR
2023-03-31 11:06:00,117.31,117.31,117.3,117.31,943.0,ATR
2023-03-31 11:05:00,117.32,117.32,117.32,117.32,207.0,ATR
2023-03-31 11:01:00,117.28,117.28,117.28,117.28,150.0,ATR
2023-03-31 11:00:00,117.25,117.25,117.25,117.25,489.0,ATR
2023-03-31 10:59:00,117.27,117.27,117.21,117.21,2073.0,ATR
2023-03-31 10:54:00,117.25,117.25,117.25,117.25,355.0,ATR
2023-03-31 10:53:00,117.37,117.37,117.25,117.25,1054.0,ATR
2023-03-31 10:49:00,117.27,117.33,117.27,117.32,1120.0,ATR
2023-03-31 10:48:00,117.23,117.23,117.23,117.23,100.0,ATR
2023-03-31 10:47:00,117.27,117.27,117.19,117.19,309.0,ATR
2023-03-31 10:44:00,117.08,117.26,117.08,117.26,1835.0,ATR
2023-03-31 10:43:00,117.08,117.08,116.97,117.0075,1474.0,ATR
2023-03-31 10:41:00,117.05,117.05,117.05,117.05,471.0,ATR
2023-03-31 10:39:00,116.97,116.99,116.97,116.99,363.0,ATR
2023-03-31 10:38:00,116.92,116.99,116.92,116.99,741.0,ATR
2023-03-31 10:37:00,116.97,117.06,116.95,116.995,2293.0,ATR
2023-03-31 10:36:00,117.065,117.065,117.065,117.065,110.0,ATR
2023-03-31 10:35:00,117.13,117.14,117.13,117.14,498.0,ATR
2023-03-31 10:33:00,117.13,117.13,117.13,117.13,100.0,ATR
2023-03-31 10:31:00,117.15,117.15,117.15,117.15,162.0,ATR
2023-03-31 10:30:00,117.04,117.04,117.04,117.04,347.0,ATR
2023-03-31 10:29:00,117.05,117.05,117.05,117.05,381.0,ATR
2023-03-31 10:27:00,116.91,117.04,116.91,117.04,210.0,ATR
2023-03-31 10:26:00,116.85,116.93,116.85,116.93,647.0,ATR
2023-03-31 10:23:00,116.74,116.775,116.74,116.775,798.0,ATR
2023-03-31 10:22:00,116.81,116.81,116.8,116.81,935.0,ATR
2023-03-31 10:15:00,116.97,116.97,116.97,116.97,100.0,ATR
2023-03-31 10:12:00,117.06,117.06,117.06,117.06,178.0,ATR
2023-03-31 10:11:00,117.0475,117.055,116.95,117.01,941.0,ATR
2023-03-31 10:02:00,117.07,117.07,117.07,117.07,285.0,ATR
2023-03-31 09:52:00,116.87,116.87,116.87,116.87,206.0,ATR
2023-03-31 09:50:00,116.9237,116.9237,116.9237,116.9237,268.0,ATR
2023-03-31 09:46:00,116.85,116.85,116.85,116.85,115.0,ATR
2023-03-31 09:41:00,117.03,117.075,117.03,117.075,402.0,ATR
2023-03-31 09:39:00,117.17,117.17,117.17,117.17,273.0,ATR
2023-03-31 09:38:00,117.04,117.04,117.04,117.04,202.0,ATR
2023-03-31 09:31:00,116.52,117.17,116.52,117.17,931.0,ATR
2023-03-30 16:01:00,115.95,115.95,115.95,115.95,4216.0,ATR
2023-03-30 16:00:00,115.93,115.98,115.915,115.95,4099.0,ATR
2023-03-30 15:59:00,115.88,115.92,115.88,115.9,775.0,ATR
2023-03-30 15:58:00,115.96,115.96,115.88,115.89,2975.0,ATR
2023-03-30 15:57:00,115.94,115.94,115.94,115.94,1141.0,ATR
2023-03-30 15:56:00,115.87,115.9,115.86,115.87,1643.0,ATR
2023-03-30 15:55:00,115.83,115.84,115.83,115.83,1411.0,ATR
2023-03-30 15:54:00,115.82,115.84,115.815,115.84,1033.0,ATR
2023-03-30 15:53:00,115.81,115.81,115.77,115.77,1855.0,ATR
2023-03-30 15:52:00,115.84,115.84,115.82,115.83,1672.0,ATR
2023-03-30 15:51:00,115.64,115.64,115.62,115.64,999.0,ATR
2023-03-30 15:50:00,115.589,115.589,115.589,115.589,173.0,ATR
2023-03-30 15:44:00,115.51,115.55,115.5,115.55,389.0,ATR
2023-03-30 15:41:00,115.56,115.56,115.56,115.56,135.0,ATR
2023-03-30 15:38:00,115.606,115.606,115.606,115.606,138.0,ATR
2023-03-30 15:37:00,115.49,115.49,115.49,115.49,262.0,ATR
2023-03-30 15:35:00,115.52,115.56,115.52,115.56,690.0,ATR
2023-03-30 15:32:00,115.46,115.6,115.46,115.6,1554.0,ATR
2023-03-30 15:31:00,115.4,115.4,115.4,115.4,347.0,ATR
2023-03-30 15:30:00,115.51,115.52,115.51,115.52,993.0,ATR
2023-03-30 15:29:00,115.57,115.57,115.56,115.56,963.0,ATR
2023-03-30 15:26:00,115.58,115.58,115.58,115.58,168.0,ATR
2023-03-30 15:18:00,115.63,115.63,115.63,115.63,1043.0,ATR
2023-03-30 15:16:00,115.51,115.57,115.51,115.57,393.0,ATR
2023-03-30 15:14:00,115.57,115.57,115.57,115.57,223.0,ATR
2023-03-30 15:11:00,115.59,115.59,115.59,115.59,103.0,ATR
2023-03-30 15:10:00,115.66,115.66,115.62,115.62,964.0,ATR
2023-03-30 15:08:00,115.66,115.66,115.66,115.66,156.0,ATR
2023-03-30 15:07:00,115.73,115.73,115.73,115.73,407.0,ATR
2023-03-30 15:04:00,115.66,115.66,115.66,115.66,129.0,ATR
2023-03-30 15:00:00,115.79,115.79,115.79,115.79,317.0,ATR
2023-03-30 14:57:00,115.76,115.76,115.76,115.76,154.0,ATR
2023-03-30 14:54:00,115.725,115.725,115.725,115.725,104.0,ATR
2023-03-30 14:52:00,115.75,115.75,115.75,115.75,157.0,ATR
2023-03-30 14:47:00,115.61,115.61,115.53,115.595,976.0,ATR
2023-03-30 14:41:00,115.72,115.72,115.72,115.72,233.0,ATR
2023-03-30 14:39:00,115.63,115.82,115.62,115.72,4088.0,ATR
2023-03-30 14:37:00,115.64,115.64,115.64,115.64,112.0,ATR
2023-03-30 14:34:00,115.665,115.665,115.61,115.66,636.0,ATR
2023-03-30 14:28:00,115.645,115.645,115.645,115.645,245.0,ATR
2023-03-30 14:22:00,115.56,115.575,115.56,115.575,850.0,ATR
2023-03-30 14:21:00,115.55,115.56,115.55,115.56,231.0,ATR
2023-03-30 14:16:00,115.585,115.585,115.44,115.44,1424.0,ATR
2023-03-30 14:13:00,115.56,115.56,115.56,115.56,130.0,ATR
2023-03-30 13:59:00,115.58,115.58,115.58,115.58,176.0,ATR
2023-03-30 13:54:00,115.52,115.52,115.49,115.49,873.0,ATR
2023-03-30 13:48:00,115.49,115.49,115.49,115.49,135.0,ATR
2023-03-30 13:46:00,115.39,115.62,115.39,115.62,2469.0,ATR
2023-03-30 13:45:00,115.18,115.335,115.18,115.335,1412.0,ATR
2023-03-30 13:44:00,115.13,115.13,115.13,115.13,110.0,ATR
2023-03-30 13:37:00,115.12,115.12,115.1,115.1,696.0,ATR
2023-03-30 13:34:00,115.17,115.17,115.17,115.17,130.0,ATR
2023-03-30 13:33:00,115.235,115.235,115.235,115.235,381.0,ATR
2023-03-30 13:28:00,115.17,115.24,115.17,115.24,1218.0,ATR
2023-03-30 13:27:00,115.05,115.05,115.05,115.05,105.0,ATR
2023-03-30 13:25:00,115.12,115.12,115.105,115.105,546.0,ATR
2023-03-30 13:22:00,115.17,115.17,115.17,115.17,322.0,ATR
2023-03-30 13:19:00,115.12,115.12,115.12,115.12,389.0,ATR
2023-03-30 13:17:00,115.19,115.19,115.17,115.17,405.0,ATR
2023-03-30 13:14:00,115.13,115.14,115.13,115.14,323.0,ATR
2023-03-30 13:13:00,115.1275,115.1275,115.1275,115.1275,114.0,ATR
2023-03-30 13:12:00,115.05,115.05,115.05,115.05,104.0,ATR
2023-03-30 13:08:00,115.14,115.14,115.12,115.12,450.0,ATR
2023-03-30 13:04:00,115.21,115.21,115.21,115.21,112.0,ATR
2023-03-30 13:03:00,115.25,115.25,115.2,115.2,326.0,ATR
2023-03-30 13:02:00,115.2,115.2,115.2,115.2,724.0,ATR
2023-03-30 13:01:00,115.11,115.11,115.11,115.11,237.0,ATR
2023-03-30 13:00:00,115.06,115.06,115.05,115.05,1188.0,ATR
2023-03-30 12:57:00,115.1475,115.16,115.11,115.13,979.0,ATR
2023-03-30 12:55:00,115.195,115.195,115.195,115.195,113.0,ATR
2023-03-30 12:54:00,115.18,115.22,115.18,115.19,1398.0,ATR
2023-03-30 12:53:00,115.21,115.21,115.18,115.18,559.0,ATR
2023-03-30 12:52:00,115.24,115.3,115.2,115.265,2100.0,ATR
2023-03-30 12:51:00,115.15,115.15,115.15,115.15,278.0,ATR
2023-03-30 12:48:00,115.225,115.29,115.225,115.235,528.0,ATR
2023-03-30 12:43:00,115.32,115.32,115.32,115.32,218.0,ATR
2023-03-30 12:39:00,115.17,115.255,115.17,115.255,1696.0,ATR
2023-03-30 12:35:00,115.21,115.21,115.2,115.2,594.0,ATR
2023-03-30 12:33:00,115.3,115.3,115.28,115.28,530.0,ATR
2023-03-30 12:32:00,115.39,115.41,115.345,115.39,1957.0,ATR
2023-03-30 12:26:00,115.52,115.52,115.515,115.515,494.0,ATR
2023-03-30 12:21:00,115.475,115.475,115.475,115.475,409.0,ATR
2023-03-30 12:19:00,115.35,115.46,115.35,115.405,1973.0,ATR
2023-03-30 12:18:00,115.36,115.37,115.36,115.37,411.0,ATR
2023-03-30 12:17:00,115.34,115.34,115.34,115.34,417.0,ATR
2023-03-30 12:16:00,115.37,115.37,115.36,115.36,655.0,ATR
2023-03-30 12:15:00,115.475,115.475,115.475,115.475,241.0,ATR
2023-03-30 12:12:00,115.46,115.46,115.46,115.46,223.0,ATR
2023-03-30 12:10:00,115.47,115.47,115.47,115.47,201.0,ATR
2023-03-30 12:09:00,115.37,115.42,115.37,115.4,3064.0,ATR
2023-03-30 12:08:00,115.34,115.43,115.3,115.37,3874.0,ATR
2023-03-30 12:07:00,115.4,115.42,115.4,115.42,359.0,ATR
2023-03-30 12:06:00,115.49,115.49,115.49,115.49,242.0,ATR
2023-03-30 12:05:00,115.515,115.515,115.47,115.5,2085.0,ATR
2023-03-30 12:04:00,115.5,115.515,115.5,115.51,988.0,ATR
2023-03-30 12:03:00,115.51,115.53,115.44,115.51,836.0,ATR
2023-03-30 12:02:00,115.56,115.56,115.55,115.55,489.0,ATR
2023-03-30 12:01:00,115.57,115.57,115.56,115.56,214.0,ATR
2023-03-30 12:00:00,115.66,115.66,115.66,115.66,672.0,ATR
2023-03-30 11:56:00,115.825,115.825,115.76,115.8,1036.0,ATR
2023-03-30 11:54:00,115.825,115.825,115.825,115.825,297.0,ATR
2023-03-30 11:53:00,115.81,115.815,115.81,115.81,471.0,ATR
2023-03-30 11:52:00,115.89,115.89,115.81,115.81,1510.0,ATR
2023-03-30 11:51:00,115.81,115.81,115.81,115.81,320.0,ATR
2023-03-30 11:49:00,115.94,115.94,115.94,115.94,168.0,ATR
2023-03-30 11:48:00,116.0,116.0,116.0,116.0,385.0,ATR
2023-03-30 11:43:00,116.08,116.15,116.08,116.15,233.0,ATR
2023-03-30 11:40:00,116.12,116.12,116.12,116.12,434.0,ATR
2023-03-30 11:39:00,116.06,116.1,116.06,116.1,868.0,ATR
2023-03-30 11:35:00,116.11,116.11,116.11,116.11,335.0,ATR
2023-03-30 11:27:00,116.33,116.33,116.33,116.33,132.0,ATR
2023-03-30 11:21:00,116.21,116.23,116.21,116.23,675.0,ATR
2023-03-30 11:19:00,116.16,116.19,116.16,116.19,986.0,ATR
2023-03-30 11:17:00,116.11,116.11,116.06,116.06,242.0,ATR
2023-03-30 11:16:00,116.08,116.095,116.08,116.095,362.0,ATR
2023-03-30 11:15:00,116.11,116.11,116.11,116.11,132.0,ATR
2023-03-30 11:13:00,116.38,116.38,116.38,116.38,604.0,ATR
2023-03-30 11:11:00,116.43,116.46,116.42,116.42,1413.0,ATR
2023-03-30 11:10:00,116.33,116.33,116.33,116.33,151.0,ATR
2023-03-30 11:05:00,116.46,116.46,116.46,116.46,102.0,ATR
2023-03-30 11:04:00,116.51,116.51,116.5,116.5,363.0,ATR
2023-03-30 11:00:00,116.335,116.38,116.32,116.38,1379.0,ATR
2023-03-30 10:58:00,116.3,116.34,116.3,116.34,813.0,ATR
2023-03-30 10:57:00,116.3,116.3,116.23,116.23,389.0,ATR
2023-03-30 10:53:00,116.38,116.38,116.38,116.38,216.0,ATR
2023-03-30 10:52:00,116.35,116.35,116.34,116.34,667.0,ATR
2023-03-30 10:51:00,116.29,116.29,116.29,116.29,163.0,ATR
2023-03-30 10:50:00,116.29,116.29,116.29,116.29,119.0,ATR
2023-03-30 10:48:00,116.3,116.3,116.21,116.21,223.0,ATR
2023-03-30 10:47:00,116.28,116.28,116.28,116.28,108.0,ATR
2023-03-30 10:44:00,116.265,116.265,116.265,116.265,282.0,ATR
2023-03-30 10:40:00,116.3,116.3,116.3,116.3,660.0,ATR
2023-03-30 10:36:00,116.26,116.26,116.26,116.26,142.0,ATR
2023-03-30 10:33:00,116.43,116.49,116.43,116.49,429.0,ATR
2023-03-30 10:32:00,116.5,116.5,116.5,116.5,201.0,ATR
2023-03-30 10:29:00,116.43,116.46,116.43,116.46,608.0,ATR
2023-03-30 10:28:00,116.26,116.35,116.26,116.35,1469.0,ATR
2023-03-30 10:26:00,116.11,116.13,116.11,116.13,929.0,ATR
2023-03-30 10:24:00,116.36,116.36,116.36,116.36,978.0,ATR
2023-03-30 10:23:00,116.43,116.43,116.3634,116.39,703.0,ATR
2023-03-30 10:17:00,116.43,116.43,116.43,116.43,188.0,ATR
2023-03-30 10:13:00,116.37,116.37,116.37,116.37,275.0,ATR
2023-03-30 10:11:00,116.45,116.45,116.45,116.45,121.0,ATR
2023-03-30 10:06:00,116.4525,116.55,116.45,116.55,1294.0,ATR
2023-03-30 10:04:00,116.32,116.48,116.32,116.48,311.0,ATR
2023-03-30 09:58:00,116.48,116.54,116.47,116.54,955.0,ATR
2023-03-30 09:57:00,116.48,116.48,116.48,116.48,185.0,ATR
2023-03-30 09:54:00,116.41,116.41,116.41,116.41,136.0,ATR
2023-03-30 09:48:00,116.59,116.77,116.59,116.77,995.0,ATR
2023-03-30 09:38:00,116.0,116.36,116.0,116.36,2960.0,ATR
2023-03-30 09:36:00,115.847,115.847,115.847,115.847,157.0,ATR
2023-03-30 09:34:00,115.96,115.96,115.96,115.96,100.0,ATR
2023-03-30 09:33:00,115.93,115.93,115.93,115.93,100.0,ATR
2023-03-30 09:31:00,116.28,116.28,115.6473,115.6473,2851.0,ATR
2023-03-29 16:01:00,115.87,115.87,115.87,115.87,2052.0,ATR
2023-03-29 16:00:00,115.89,115.93,115.76,115.92,9594.0,ATR
2023-03-29 15:59:00,115.875,115.9,115.875,115.9,1416.0,ATR
2023-03-29 15:58:00,115.81,115.87,115.81,115.87,1106.0,ATR
2023-03-29 15:57:00,115.785,115.8,115.76,115.8,1478.0,ATR
2023-03-29 15:56:00,115.64,115.775,115.64,115.77,5290.0,ATR
2023-03-29 15:55:00,115.61,115.64,115.61,115.64,694.0,ATR
2023-03-29 15:54:00,115.585,115.595,115.585,115.595,633.0,ATR
2023-03-29 15:53:00,115.6,115.61,115.57,115.59,1840.0,ATR
2023-03-29 15:52:00,115.55,115.56,115.55,115.56,723.0,ATR
2023-03-29 15:51:00,115.68,115.68,115.44,115.44,997.0,ATR
2023-03-29 15:49:00,115.655,115.655,115.655,115.655,435.0,ATR
2023-03-29 15:48:00,115.68,115.68,115.68,115.68,674.0,ATR
2023-03-29 15:47:00,115.72,115.72,115.72,115.72,506.0,ATR
2023-03-29 15:46:00,115.67,115.755,115.67,115.75,812.0,ATR
2023-03-29 15:45:00,115.67,115.735,115.62,115.735,1840.0,ATR
2023-03-29 15:42:00,115.47,115.47,115.47,115.47,140.0,ATR
2023-03-29 15:41:00,115.54,115.54,115.51,115.51,943.0,ATR
2023-03-29 15:40:00,115.58,115.58,115.58,115.58,236.0,ATR
2023-03-29 15:38:00,115.435,115.52,115.435,115.52,210.0,ATR
2023-03-29 15:37:00,115.63,115.63,115.53,115.53,1073.0,ATR
2023-03-29 15:36:00,115.67,115.67,115.62,115.655,887.0,ATR
2023-03-29 15:35:00,115.58,115.58,115.57,115.57,1010.0,ATR
2023-03-29 15:34:00,115.6107,115.6107,115.6107,115.6107,451.0,ATR
2023-03-29 15:31:00,115.74,115.74,115.66,115.66,1209.0,ATR
2023-03-29 15:29:00,115.76,115.82,115.76,115.82,288.0,ATR
2023-03-29 15:27:00,115.85,115.86,115.81,115.81,1047.0,ATR
2023-03-29 15:23:00,115.82,115.82,115.82,115.82,121.0,ATR
2023-03-29 15:20:00,115.675,115.76,115.675,115.76,247.0,ATR
2023-03-29 15:19:00,115.83,115.83,115.83,115.83,141.0,ATR
2023-03-29 15:17:00,115.75,115.75,115.75,115.75,408.0,ATR
2023-03-29 15:10:00,115.635,115.635,115.635,115.635,130.0,ATR
2023-03-29 15:09:00,115.535,115.535,115.535,115.535,103.0,ATR
2023-03-29 15:08:00,115.71,115.71,115.61,115.61,239.0,ATR
2023-03-29 15:03:00,115.67,115.7,115.67,115.7,404.0,ATR
2023-03-29 15:02:00,115.76,115.81,115.66,115.755,2249.0,ATR
2023-03-29 15:01:00,115.835,115.835,115.835,115.835,219.0,ATR
2023-03-29 15:00:00,115.89,115.89,115.89,115.89,112.0,ATR
2023-03-29 14:59:00,115.84,115.84,115.84,115.84,146.0,ATR
2023-03-29 14:56:00,115.815,115.815,115.815,115.815,207.0,ATR
2023-03-29 14:55:00,115.9,115.9,115.9,115.9,168.0,ATR
2023-03-29 14:54:00,115.7,115.7,115.7,115.7,143.0,ATR
2023-03-29 14:52:00,115.79,115.805,115.74,115.74,1423.0,ATR
2023-03-29 14:48:00,115.79,115.79,115.79,115.79,228.0,ATR
2023-03-29 14:45:00,115.7,115.7,115.7,115.7,779.0,ATR
2023-03-29 14:44:00,115.78,115.78,115.78,115.78,113.0,ATR
2023-03-29 14:39:00,115.68,115.68,115.68,115.68,714.0,ATR
2023-03-29 14:33:00,115.74,115.74,115.74,115.74,146.0,ATR
2023-03-29 14:29:00,115.57,115.57,115.57,115.57,189.0,ATR
2023-03-29 14:24:00,115.6,115.6,115.6,115.6,193.0,ATR
2023-03-29 14:21:00,115.62,115.62,115.55,115.62,1141.0,ATR
2023-03-29 14:20:00,115.7,115.7,115.7,115.7,201.0,ATR
2023-03-29 14:18:00,115.56,115.68,115.56,115.68,582.0,ATR
2023-03-29 14:17:00,115.56,115.57,115.56,115.56,2819.0,ATR
2023-03-29 14:16:00,115.545,115.545,115.52,115.52,870.0,ATR
2023-03-29 14:15:00,115.56,115.56,115.545,115.56,739.0,ATR
2023-03-29 14:14:00,115.53,115.56,115.5,115.525,921.0,ATR
2023-03-29 14:07:00,115.495,115.495,115.495,115.495,106.0,ATR
2023-03-29 14:05:00,115.455,115.455,115.455,115.455,155.0,ATR
2023-03-29 14:03:00,115.465,115.465,115.465,115.465,518.0,ATR
2023-03-29 14:01:00,115.56,115.56,115.56,115.56,929.0,ATR
2023-03-29 13:58:00,115.56,115.56,115.56,115.56,111.0,ATR
2023-03-29 13:55:00,115.435,115.49,115.42,115.49,904.0,ATR
2023-03-29 13:53:00,115.43,115.43,115.43,115.43,214.0,ATR
2023-03-29 13:52:00,115.43,115.43,115.43,115.43,107.0,ATR
2023-03-29 13:50:00,115.38,115.38,115.38,115.38,482.0,ATR
2023-03-29 13:43:00,115.44,115.44,115.44,115.44,408.0,ATR
2023-03-29 13:41:00,115.5,115.5,115.5,115.5,116.0,ATR
2023-03-29 13:40:00,115.52,115.535,115.52,115.535,342.0,ATR
2023-03-29 13:39:00,115.52,115.52,115.51,115.51,266.0,ATR
2023-03-29 13:34:00,115.51,115.51,115.47,115.495,902.0,ATR
2023-03-29 13:28:00,115.55,115.55,115.55,115.55,161.0,ATR
2023-03-29 13:27:00,115.53,115.58,115.53,115.58,630.0,ATR
2023-03-29 13:22:00,115.54,115.54,115.54,115.54,216.0,ATR
2023-03-29 13:13:00,115.53,115.53,115.53,115.53,116.0,ATR
2023-03-29 13:07:00,115.37,115.43,115.37,115.43,775.0,ATR
2023-03-29 13:00:00,115.3,115.3,115.3,115.3,378.0,ATR
2023-03-29 12:57:00,115.35,115.35,115.35,115.35,132.0,ATR
2023-03-29 12:45:00,115.32,115.4,115.29,115.29,1124.0,ATR
2023-03-29 12:41:00,115.36,115.36,115.36,115.36,128.0,ATR
2023-03-29 12:38:00,115.36,115.36,115.36,115.36,296.0,ATR
2023-03-29 12:32:00,115.31,115.4,115.31,115.4,705.0,ATR
2023-03-29 12:31:00,115.172,115.172,115.172,115.172,126.0,ATR
2023-03-29 12:25:00,115.39,115.39,115.39,115.39,913.0,ATR
2023-03-29 12:21:00,115.42,115.42,115.42,115.42,552.0,ATR
2023-03-29 11:59:00,115.29,115.32,115.29,115.3043,461.0,ATR
2023-03-29 11:55:00,115.36,115.37,115.36,115.37,541.0,ATR
2023-03-29 11:36:00,115.16,115.225,115.16,115.225,560.0,ATR
2023-03-29 11:34:00,115.26,115.3,115.24,115.24,463.0,ATR
2023-03-29 11:32:00,115.575,115.575,115.5,115.5,475.0,ATR
2023-03-29 11:31:00,115.55,115.645,115.55,115.58,4545.0,ATR
2023-03-29 11:20:00,115.8,115.8,115.75,115.75,561.0,ATR
2023-03-29 11:12:00,115.7597,115.7597,115.7597,115.7597,369.0,ATR
2023-03-29 11:05:00,115.71,115.71,115.71,115.71,167.0,ATR
2023-03-29 11:02:00,115.595,115.595,115.595,115.595,162.0,ATR
2023-03-29 10:57:00,115.75,115.75,115.75,115.75,212.0,ATR
2023-03-29 10:56:00,115.655,115.735,115.655,115.735,769.0,ATR
2023-03-29 10:54:00,115.73,115.73,115.73,115.73,304.0,ATR
2023-03-29 10:53:00,115.67,115.67,115.67,115.67,501.0,ATR
2023-03-29 10:44:00,115.78,115.78,115.78,115.78,208.0,ATR
2023-03-29 10:43:00,115.94,115.94,115.94,115.94,330.0,ATR
2023-03-29 10:42:00,115.65,115.65,115.65,115.65,231.0,ATR
2023-03-29 10:41:00,115.74,115.74,115.74,115.74,235.0,ATR
2023-03-29 10:35:00,115.86,115.86,115.86,115.86,479.0,ATR
2023-03-29 10:31:00,115.74,115.89,115.74,115.89,570.0,ATR
2023-03-29 10:30:00,115.59,115.885,115.59,115.885,650.0,ATR
2023-03-29 10:29:00,115.66,115.66,115.66,115.66,247.0,ATR
2023-03-29 10:26:00,115.69,115.69,115.66,115.66,434.0,ATR
2023-03-29 10:23:00,115.83,115.83,115.83,115.83,152.0,ATR
2023-03-29 10:22:00,115.765,115.765,115.765,115.765,294.0,ATR
2023-03-29 10:21:00,115.94,115.94,115.94,115.94,136.0,ATR
2023-03-29 10:12:00,115.77,115.77,115.77,115.77,281.0,ATR
2023-03-29 10:08:00,115.63,115.63,115.63,115.63,142.0,ATR
2023-03-29 10:00:00,115.41,115.41,115.41,115.41,112.0,ATR
2023-03-29 09:31:00,115.69,115.69,115.69,115.69,686.0,ATR
2023-03-28 16:04:00,115.02,115.02,115.02,115.02,1962.0,ATR
2023-03-28 16:02:00,115.02,115.02,115.02,115.02,602.0,ATR
2023-03-28 16:01:00,115.02,115.02,115.02,115.02,2470.0,ATR
2023-03-28 16:00:00,115.079,115.12,114.99,115.09,12648.0,ATR
2023-03-28 15:59:00,114.975,115.08,114.975,115.06,4723.0,ATR
2023-03-28 15:58:00,114.97,115.0,114.96,114.96,5433.0,ATR
2023-03-28 15:57:00,114.97,115.0,114.935,114.97,5544.0,ATR
2023-03-28 15:56:00,115.0,115.0,114.97,114.97,2930.0,ATR
2023-03-28 15:55:00,115.05,115.055,114.95,114.99,2666.0,ATR
2023-03-28 15:54:00,115.095,115.1,115.05,115.06,2457.0,ATR
2023-03-28 15:53:00,115.1,115.1,115.09,115.095,1361.0,ATR
2023-03-28 15:52:00,115.0,115.1,114.9825,115.095,8968.0,ATR
2023-03-28 15:51:00,114.97,115.0,114.97,114.97,2326.0,ATR
2023-03-28 15:50:00,115.0,115.0,114.96,114.975,828.0,ATR
2023-03-28 15:49:00,114.965,114.99,114.965,114.975,545.0,ATR
2023-03-28 15:48:00,114.95,114.97,114.95,114.97,585.0,ATR
2023-03-28 15:47:00,114.95,115.0,114.91,114.91,3320.0,ATR
2023-03-28 15:46:00,115.015,115.015,115.015,115.015,248.0,ATR
2023-03-28 15:45:00,115.01,115.01,115.01,115.01,603.0,ATR
2023-03-28 15:44:00,114.99,115.0,114.99,115.0,957.0,ATR
2023-03-28 15:43:00,114.945,114.945,114.94,114.94,550.0,ATR
2023-03-28 15:42:00,114.9,114.94,114.9,114.94,698.0,ATR
2023-03-28 15:41:00,114.905,114.905,114.905,114.905,157.0,ATR
2023-03-28 15:40:00,115.02,115.02,114.915,114.92,3100.0,ATR
2023-03-28 15:39:00,114.96,115.0,114.93,114.965,2278.0,ATR
2023-03-28 15:38:00,114.93,114.95,114.93,114.95,244.0,ATR
2023-03-28 15:35:00,114.74,114.76,114.7,114.76,891.0,ATR
2023-03-28 15:34:00,114.6,114.77,114.6,114.745,2407.0,ATR
2023-03-28 15:33:00,114.575,114.575,114.575,114.575,182.0,ATR
2023-03-28 15:32:00,114.79,114.79,114.56,114.56,1285.0,ATR
2023-03-28 15:31:00,114.9,114.9,114.74,114.74,220.0,ATR
2023-03-28 15:30:00,114.91,114.91,114.91,114.91,138.0,ATR
2023-03-28 15:28:00,114.82,114.865,114.78,114.81,1149.0,ATR
2023-03-28 15:27:00,114.965,114.965,114.915,114.915,821.0,ATR
2023-03-28 15:26:00,114.955,115.0,114.955,115.0,1510.0,ATR
2023-03-28 15:25:00,114.8717,114.8717,114.8717,114.8717,193.0,ATR
2023-03-28 15:24:00,114.915,114.98,114.915,114.915,489.0,ATR
2023-03-28 15:23:00,114.905,114.905,114.905,114.905,285.0,ATR
2023-03-28 15:21:00,114.93,114.93,114.93,114.93,201.0,ATR
2023-03-28 15:20:00,114.88,114.93,114.88,114.93,281.0,ATR
2023-03-28 15:19:00,114.91,114.91,114.91,114.91,111.0,ATR
2023-03-28 15:18:00,114.87,114.91,114.87,114.91,804.0,ATR
2023-03-28 15:17:00,114.93,114.93,114.93,114.93,121.0,ATR
2023-03-28 15:14:00,114.9,114.945,114.9,114.945,425.0,ATR
2023-03-28 15:04:00,114.95,114.95,114.93,114.93,761.0,ATR
2023-03-28 15:03:00,114.98,114.98,114.98,114.98,100.0,ATR
2023-03-28 15:02:00,115.0,115.0,114.97,114.97,1124.0,ATR
2023-03-28 15:01:00,115.0,115.0,114.95,114.96,3994.0,ATR
2023-03-28 14:59:00,114.975,114.975,114.975,114.975,240.0,ATR
2023-03-28 14:57:00,114.97,114.97,114.95,114.95,414.0,ATR
2023-03-28 14:55:00,114.95,114.95,114.95,114.95,855.0,ATR
2023-03-28 14:53:00,115.025,115.025,115.025,115.025,205.0,ATR
2023-03-28 14:51:00,114.8969,115.01,114.8969,115.01,1608.0,ATR
2023-03-28 14:48:00,114.89,114.89,114.885,114.885,513.0,ATR
2023-03-28 14:47:00,115.0,115.01,114.895,114.91,2362.0,ATR
2023-03-28 14:45:00,115.0,115.0,115.0,115.0,230.0,ATR
2023-03-28 14:44:00,115.0,115.0,115.0,115.0,181.0,ATR
2023-03-28 14:42:00,114.9012,114.9012,114.9012,114.9012,308.0,ATR
2023-03-28 14:41:00,114.97,114.99,114.97,114.99,657.0,ATR
2023-03-28 14:40:00,114.95,114.95,114.95,114.95,456.0,ATR
2023-03-28 14:38:00,114.92,114.92,114.92,114.92,272.0,ATR
2023-03-28 14:37:00,114.87,114.87,114.8575,114.8575,542.0,ATR
2023-03-28 14:33:00,114.895,114.895,114.895,114.895,113.0,ATR
2023-03-28 14:31:00,114.89,114.89,114.89,114.89,109.0,ATR
2023-03-28 14:30:00,114.89,114.89,114.89,114.89,111.0,ATR
2023-03-28 14:25:00,114.87,114.87,114.87,114.87,247.0,ATR
2023-03-28 14:23:00,114.945,114.945,114.945,114.945,100.0,ATR
2023-03-28 14:22:00,115.0,115.0,115.0,115.0,120.0,ATR
2023-03-28 14:20:00,114.84,114.84,114.84,114.84,197.0,ATR
2023-03-28 14:18:00,114.86,114.9,114.86,114.9,614.0,ATR
2023-03-28 14:17:00,115.01,115.01,114.95,114.97,855.0,ATR
2023-03-28 14:16:00,115.0,115.0,115.0,115.0,1335.0,ATR
2023-03-28 14:15:00,115.0,115.0,115.0,115.0,295.0,ATR
2023-03-28 14:14:00,114.935,114.935,114.925,114.925,259.0,ATR
2023-03-28 14:12:00,114.955,114.955,114.955,114.955,240.0,ATR
2023-03-28 14:02:00,114.96,115.03,114.96,115.03,1186.0,ATR
2023-03-28 14:00:00,114.85,114.85,114.85,114.85,134.0,ATR
2023-03-28 13:58:00,114.795,114.865,114.795,114.865,429.0,ATR
2023-03-28 13:57:00,114.84,114.905,114.84,114.905,540.0,ATR
2023-03-28 13:53:00,114.88,114.88,114.88,114.88,101.0,ATR
2023-03-28 13:52:00,114.87,114.88,114.865,114.87,715.0,ATR
2023-03-28 13:51:00,114.86,114.87,114.86,114.87,811.0,ATR
2023-03-28 13:50:00,114.745,114.745,114.745,114.745,722.0,ATR
2023-03-28 13:47:00,114.74,114.74,114.74,114.74,107.0,ATR
2023-03-28 13:46:00,114.78,114.78,114.725,114.725,989.0,ATR
2023-03-28 13:41:00,114.94,114.94,114.94,114.94,162.0,ATR
2023-03-28 13:38:00,114.98,115.02,114.98,115.02,508.0,ATR
2023-03-28 13:37:00,114.96,114.98,114.95,114.98,863.0,ATR
2023-03-28 13:36:00,114.76,114.87,114.76,114.87,958.0,ATR
2023-03-28 13:35:00,114.77,114.77,114.77,114.77,328.0,ATR
2023-03-28 13:34:00,114.92,114.92,114.82,114.835,434.0,ATR
2023-03-28 13:33:00,114.9264,114.9264,114.9264,114.9264,240.0,ATR
2023-03-28 13:30:00,114.9,114.92,114.9,114.92,801.0,ATR
2023-03-28 13:29:00,114.93,115.0,114.93,115.0,1591.0,ATR
2023-03-28 13:26:00,114.89,114.89,114.89,114.89,116.0,ATR
2023-03-28 13:25:00,114.87,114.87,114.87,114.87,198.0,ATR
2023-03-28 13:24:00,114.88,114.88,114.86,114.86,280.0,ATR
2023-03-28 13:17:00,114.81,114.97,114.81,114.82,2889.0,ATR
2023-03-28 13:16:00,114.745,114.745,114.745,114.745,100.0,ATR
2023-03-28 13:14:00,114.74,114.74,114.74,114.74,270.0,ATR
2023-03-28 13:12:00,114.8,114.8,114.8,114.8,535.0,ATR
2023-03-28 13:11:00,114.7,114.7,114.7,114.7,547.0,ATR
2023-03-28 13:10:00,114.739,114.739,114.739,114.739,155.0,ATR
2023-03-28 13:03:00,114.88,114.88,114.88,114.88,742.0,ATR
2023-03-28 12:57:00,114.8,114.89,114.8,114.89,1328.0,ATR
2023-03-28 12:56:00,114.77,114.8,114.77,114.8,718.0,ATR
2023-03-28 12:48:00,114.73,114.73,114.73,114.73,795.0,ATR
2023-03-28 12:43:00,114.7708,114.7708,114.7708,114.7708,218.0,ATR
2023-03-28 12:32:00,114.79,114.79,114.79,114.79,108.0,ATR
2023-03-28 12:31:00,114.77,114.77,114.77,114.77,820.0,ATR
2023-03-28 12:26:00,114.825,114.825,114.825,114.825,234.0,ATR
2023-03-28 12:25:00,114.78,114.83,114.78,114.83,213.0,ATR
2023-03-28 12:21:00,114.84,114.84,114.84,114.84,218.0,ATR
2023-03-28 12:19:00,114.755,114.755,114.755,114.755,408.0,ATR
2023-03-28 12:18:00,114.755,114.755,114.755,114.755,205.0,ATR
2023-03-28 12:11:00,114.75,114.77,114.75,114.77,689.0,ATR
2023-03-28 12:10:00,114.82,114.82,114.82,114.82,162.0,ATR
2023-03-28 12:05:00,114.82,114.82,114.82,114.82,336.0,ATR
2023-03-28 12:00:00,114.8,114.82,114.8,114.82,823.0,ATR
2023-03-28 11:59:00,114.73,114.73,114.73,114.73,764.0,ATR
2023-03-28 11:53:00,114.795,114.795,114.795,114.795,255.0,ATR
2023-03-28 11:50:00,114.78,114.78,114.765,114.765,275.0,ATR
2023-03-28 11:38:00,114.67,114.76,114.67,114.76,412.0,ATR
2023-03-28 11:26:00,114.665,114.665,114.665,114.665,138.0,ATR
2023-03-28 11:19:00,114.66,114.66,114.66,114.66,103.0,ATR
2023-03-28 11:14:00,114.57,114.6,114.57,114.6,511.0,ATR
2023-03-28 11:11:00,114.5,114.57,114.49,114.57,804.0,ATR
2023-03-28 11:09:00,114.63,114.72,114.63,114.72,205.0,ATR
2023-03-28 11:06:00,114.48,114.61,114.48,114.61,204.0,ATR
2023-03-28 11:04:00,114.53,114.65,114.53,114.65,716.0,ATR
2023-03-28 11:02:00,114.34,114.34,114.34,114.34,147.0,ATR
2023-03-28 10:58:00,114.4,114.445,114.4,114.445,405.0,ATR
2023-03-28 10:52:00,114.42,114.42,114.38,114.38,245.0,ATR
2023-03-28 10:47:00,114.37,114.37,114.37,114.37,192.0,ATR
2023-03-28 10:41:00,114.39,114.39,114.39,114.39,206.0,ATR
2023-03-28 10:40:00,114.42,114.45,114.405,114.405,432.0,ATR
2023-03-28 10:35:00,114.45,114.45,114.45,114.45,405.0,ATR
2023-03-28 10:30:00,114.83,114.83,114.83,114.83,161.0,ATR
2023-03-28 10:29:00,114.71,114.71,114.65,114.65,743.0,ATR
2023-03-28 10:28:00,114.72,114.74,114.72,114.74,614.0,ATR
2023-03-28 10:22:00,114.68,114.68,114.51,114.55,2002.0,ATR
2023-03-28 10:17:00,114.87,114.87,114.87,114.87,149.0,ATR
2023-03-28 10:15:00,114.7,114.7,114.7,114.7,675.0,ATR
2023-03-28 10:12:00,114.58,114.76,114.58,114.69,821.0,ATR
2023-03-28 10:11:00,114.58,114.58,114.58,114.58,203.0,ATR
2023-03-28 10:08:00,114.54,114.54,114.53,114.53,428.0,ATR
2023-03-28 10:06:00,114.28,114.365,114.23,114.365,878.0,ATR
2023-03-28 10:02:00,114.235,114.235,114.1,114.1,612.0,ATR
2023-03-28 10:01:00,114.29,114.29,114.29,114.29,449.0,ATR
2023-03-28 10:00:00,114.58,114.58,114.58,114.58,202.0,ATR
2023-03-28 09:55:00,114.58,114.665,114.575,114.66,2660.0,ATR
2023-03-28 09:54:00,114.585,114.585,114.585,114.585,126.0,ATR
2023-03-28 09:51:00,114.585,114.585,114.585,114.585,376.0,ATR
2023-03-28 09:50:00,114.575,114.585,114.575,114.585,482.0,ATR
2023-03-28 09:48:00,114.575,114.58,114.575,114.58,1140.0,ATR
2023-03-28 09:45:00,114.58,114.58,114.58,114.58,105.0,ATR
2023-03-28 09:44:00,114.41,114.515,114.41,114.515,298.0,ATR
2023-03-28 09:40:00,114.46,114.46,114.46,114.46,103.0,ATR
2023-03-28 09:39:00,114.81,114.81,114.81,114.81,101.0,ATR
2023-03-28 09:38:00,114.31,114.31,114.31,114.31,191.0,ATR
2023-03-28 09:35:00,113.895,113.895,113.895,113.895,102.0,ATR
2023-03-28 09:31:00,113.77,113.77,113.14,113.14,1235.0,ATR
2023-03-27 16:01:00,113.98,113.98,113.98,113.98,7686.0,ATR
2023-03-27 16:00:00,113.931,114.05,113.83,114.05,6147.0,ATR
2023-03-27 15:59:00,113.97,114.06,113.96,113.96,4404.0,ATR
2023-03-27 15:58:00,114.09,114.09,114.0,114.0,1669.0,ATR
2023-03-27 15:57:00,114.08,114.11,114.08,114.11,2018.0,ATR
2023-03-27 15:56:00,114.151,114.151,114.071,114.071,1202.0,ATR
2023-03-27 15:55:00,114.14,114.22,114.13,114.175,1601.0,ATR
2023-03-27 15:54:00,114.16,114.2,114.16,114.16,1544.0,ATR
2023-03-27 15:53:00,114.125,114.22,114.125,114.14,1339.0,ATR
2023-03-27 15:52:00,114.2,114.2,114.14,114.17,1608.0,ATR
2023-03-27 15:51:00,114.13,114.17,114.13,114.17,2207.0,ATR
2023-03-27 15:50:00,114.24,114.28,114.24,114.26,1183.0,ATR
2023-03-27 15:49:00,114.23,114.27,114.18,114.18,1147.0,ATR
2023-03-27 15:47:00,114.34,114.34,114.34,114.34,857.0,ATR
2023-03-27 15:46:00,114.38,114.4,114.38,114.4,1195.0,ATR
2023-03-27 15:45:00,114.439,114.44,114.439,114.44,695.0,ATR
2023-03-27 15:42:00,114.3975,114.3975,114.3975,114.3975,511.0,ATR
2023-03-27 15:41:00,114.37,114.38,114.34,114.38,1557.0,ATR
2023-03-27 15:40:00,114.34,114.34,114.34,114.34,580.0,ATR
2023-03-27 15:39:00,114.275,114.275,114.275,114.275,110.0,ATR
2023-03-27 15:37:00,114.47,114.47,114.3522,114.3522,499.0,ATR
2023-03-27 15:36:00,114.59,114.59,114.52,114.52,685.0,ATR
2023-03-27 15:35:00,114.52,114.58,114.51,114.58,2049.0,ATR
2023-03-27 15:34:00,114.635,114.635,114.55,114.55,1598.0,ATR
2023-03-27 15:33:00,114.67,114.67,114.669,114.669,473.0,ATR
2023-03-27 15:32:00,114.635,114.635,114.635,114.635,260.0,ATR
2023-03-27 15:31:00,114.67,114.67,114.61,114.61,406.0,ATR
2023-03-27 15:30:00,114.63,114.67,114.63,114.67,643.0,ATR
2023-03-27 15:28:00,114.47,114.729,114.47,114.729,2084.0,ATR
2023-03-27 15:27:00,114.45,114.45,114.445,114.445,316.0,ATR
2023-03-27 15:24:00,114.44,114.44,114.44,114.44,199.0,ATR
2023-03-27 15:22:00,114.42,114.42,114.42,114.42,208.0,ATR
2023-03-27 15:20:00,114.51,114.51,114.51,114.51,452.0,ATR
2023-03-27 15:19:00,114.58,114.58,114.53,114.53,1938.0,ATR
2023-03-27 15:18:00,114.57,114.609,114.57,114.603,851.0,ATR
2023-03-27 15:15:00,114.579,114.58,114.576,114.58,903.0,ATR
2023-03-27 15:14:00,114.535,114.535,114.535,114.535,150.0,ATR
2023-03-27 15:12:00,114.54,114.54,114.54,114.54,357.0,ATR
2023-03-27 15:10:00,114.54,114.54,114.54,114.54,157.0,ATR
2023-03-27 15:08:00,114.58,114.58,114.58,114.58,198.0,ATR
2023-03-27 15:05:00,114.7,114.73,114.66,114.67,1393.0,ATR
2023-03-27 15:03:00,114.72,114.7623,114.71,114.7623,1597.0,ATR
2023-03-27 15:01:00,114.66,114.66,114.66,114.66,238.0,ATR
2023-03-27 15:00:00,114.65,114.65,114.65,114.65,208.0,ATR
2023-03-27 14:58:00,114.605,114.67,114.6,114.67,1723.0,ATR
2023-03-27 14:56:00,114.61,114.61,114.59,114.6,936.0,ATR
2023-03-27 14:54:00,114.61,114.61,114.61,114.61,509.0,ATR
2023-03-27 14:53:00,114.585,114.61,114.585,114.61,280.0,ATR
2023-03-27 14:52:00,114.62,114.62,114.595,114.61,1071.0,ATR
2023-03-27 14:51:00,114.63,114.63,114.61,114.61,895.0,ATR
2023-03-27 14:50:00,114.625,114.625,114.585,114.585,1361.0,ATR
2023-03-27 14:49:00,114.62,114.62,114.62,114.62,926.0,ATR
2023-03-27 14:47:00,114.71,114.71,114.71,114.71,488.0,ATR
2023-03-27 14:46:00,114.67,114.67,114.67,114.67,411.0,ATR
2023-03-27 14:34:00,114.7,114.7,114.7,114.7,106.0,ATR
2023-03-27 14:29:00,114.54,114.54,114.54,114.54,560.0,ATR
2023-03-27 14:23:00,114.53,114.53,114.53,114.53,551.0,ATR
2023-03-27 14:20:00,114.42,114.42,114.42,114.42,412.0,ATR
2023-03-27 14:07:00,114.46,114.46,114.46,114.46,350.0,ATR
2023-03-27 14:06:00,114.41,114.41,114.37,114.41,888.0,ATR
2023-03-27 14:03:00,114.355,114.57,114.355,114.57,1354.0,ATR
2023-03-27 14:02:00,114.36,114.36,114.36,114.36,378.0,ATR
2023-03-27 14:01:00,114.4,114.4,114.4,114.4,122.0,ATR
2023-03-27 13:58:00,114.4,114.4,114.4,114.4,260.0,ATR
2023-03-27 13:57:00,114.39,114.4,114.365,114.385,550.0,ATR
2023-03-27 13:55:00,114.4295,114.4295,114.33,114.365,622.0,ATR
2023-03-27 13:52:00,114.465,114.52,114.465,114.52,488.0,ATR
2023-03-27 13:51:00,114.49,114.49,114.49,114.49,746.0,ATR
2023-03-27 13:44:00,114.52,114.52,114.52,114.52,171.0,ATR
2023-03-27 13:41:00,114.54,114.54,114.5302,114.5302,1093.0,ATR
2023-03-27 13:37:00,114.61,114.61,114.61,114.61,636.0,ATR
2023-03-27 13:36:00,114.65,114.65,114.65,114.65,712.0,ATR
2023-03-27 13:33:00,114.736,114.736,114.736,114.736,360.0,ATR
2023-03-27 13:31:00,114.705,114.705,114.705,114.705,143.0,ATR
2023-03-27 13:29:00,114.6837,114.6837,114.6837,114.6837,277.0,ATR
2023-03-27 13:28:00,114.64,114.66,114.64,114.66,301.0,ATR
2023-03-27 13:26:00,114.73,114.73,114.73,114.73,152.0,ATR
2023-03-27 13:24:00,114.755,114.755,114.755,114.755,176.0,ATR
2023-03-27 13:23:00,114.759,114.79,114.759,114.79,694.0,ATR
2023-03-27 13:22:00,114.7,114.7,114.7,114.7,353.0,ATR
2023-03-27 13:21:00,114.649,114.649,114.649,114.649,136.0,ATR
2023-03-27 13:20:00,114.5657,114.62,114.5657,114.62,241.0,ATR
2023-03-27 13:17:00,114.67,114.67,114.56,114.56,398.0,ATR
2023-03-27 13:13:00,114.64,114.64,114.64,114.64,493.0,ATR
2023-03-27 13:12:00,114.57,114.57,114.57,114.57,231.0,ATR
2023-03-27 13:05:00,114.8,114.8,114.8,114.8,115.0,ATR
2023-03-27 13:04:00,114.8,114.84,114.8,114.84,600.0,ATR
2023-03-27 13:03:00,114.78,114.78,114.78,114.78,157.0,ATR
2023-03-27 13:02:00,114.73,114.73,114.73,114.73,188.0,ATR
2023-03-27 13:01:00,114.809,114.809,114.809,114.809,334.0,ATR
2023-03-27 13:00:00,114.8,114.8,114.8,114.8,308.0,ATR
2023-03-27 12:59:00,114.73,114.73,114.73,114.73,223.0,ATR
2023-03-27 12:57:00,114.77,114.825,114.77,114.825,929.0,ATR
2023-03-27 12:53:00,114.755,114.755,114.75,114.75,486.0,ATR
2023-03-27 12:51:00,114.75,114.75,114.75,114.75,120.0,ATR
2023-03-27 12:45:00,114.65,114.65,114.65,114.65,387.0,ATR
2023-03-27 12:43:00,114.749,114.76,114.749,114.76,723.0,ATR
2023-03-27 12:42:00,114.72,114.72,114.72,114.72,174.0,ATR
2023-03-27 12:40:00,114.759,114.759,114.759,114.759,111.0,ATR
2023-03-27 12:37:00,114.67,114.67,114.67,114.67,438.0,ATR
2023-03-27 12:34:00,114.615,114.615,114.615,114.615,559.0,ATR
2023-03-27 12:31:00,114.6,114.6,114.56,114.56,519.0,ATR
2023-03-27 12:27:00,114.57,114.57,114.52,114.56,833.0,ATR
2023-03-27 12:24:00,114.645,114.645,114.645,114.645,340.0,ATR
2023-03-27 12:22:00,114.699,114.699,114.699,114.699,346.0,ATR
2023-03-27 12:20:00,114.659,114.659,114.659,114.659,387.0,ATR
2023-03-27 12:16:00,114.57,114.57,114.57,114.57,385.0,ATR
2023-03-27 12:10:00,114.34,114.39,114.34,114.39,380.0,ATR
2023-03-27 12:09:00,114.32,114.32,114.26,114.26,718.0,ATR
2023-03-27 12:06:00,114.55,114.55,114.4,114.445,725.0,ATR
2023-03-27 12:04:00,114.53,114.53,114.53,114.53,102.0,ATR
2023-03-27 11:59:00,114.559,114.559,114.559,114.559,214.0,ATR
2023-03-27 11:58:00,114.355,114.355,114.355,114.355,165.0,ATR
2023-03-27 11:54:00,114.47,114.47,114.47,114.47,570.0,ATR
2023-03-27 11:50:00,114.499,114.499,114.499,114.499,189.0,ATR
2023-03-27 11:46:00,114.3995,114.3995,114.3995,114.3995,190.0,ATR
2023-03-27 11:45:00,114.445,114.445,114.445,114.445,191.0,ATR
2023-03-27 11:44:00,114.45,114.509,114.45,114.509,278.0,ATR
2023-03-27 11:37:00,114.34,114.34,114.34,114.34,348.0,ATR
2023-03-27 11:32:00,114.33,114.33,114.33,114.33,304.0,ATR
2023-03-27 11:31:00,114.3,114.335,114.3,114.335,937.0,ATR
2023-03-27 11:30:00,114.3,114.3,114.29,114.29,1320.0,ATR
2023-03-27 11:27:00,114.29,114.353,114.29,114.353,219.0,ATR
2023-03-27 11:25:00,114.295,114.295,114.295,114.295,146.0,ATR
2023-03-27 11:22:00,114.23,114.35,114.23,114.35,690.0,ATR
2023-03-27 11:21:00,114.169,114.169,114.169,114.169,185.0,ATR
2023-03-27 11:20:00,114.1,114.1,114.1,114.1,256.0,ATR
2023-03-27 11:14:00,114.24,114.24,114.24,114.24,401.0,ATR
2023-03-27 11:13:00,114.239,114.239,114.239,114.239,168.0,ATR
2023-03-27 11:08:00,114.259,114.26,114.155,114.155,470.0,ATR
2023-03-27 11:05:00,114.2,114.2,114.2,114.2,473.0,ATR
2023-03-27 11:04:00,114.18,114.18,114.18,114.18,246.0,ATR
2023-03-27 11:00:00,114.15,114.15,114.15,114.15,181.0,ATR
2023-03-27 10:57:00,114.24,114.24,114.24,114.24,342.0,ATR
2023-03-27 10:53:00,114.309,114.31,114.309,114.31,616.0,ATR
2023-03-27 10:52:00,114.18,114.18,114.18,114.18,447.0,ATR
2023-03-27 10:49:00,114.11,114.11,113.99,113.99,840.0,ATR
2023-03-27 10:43:00,114.02,114.02,114.02,114.02,110.0,ATR
2023-03-27 10:41:00,114.21,114.21,114.21,114.21,732.0,ATR
2023-03-27 10:40:00,114.22,114.22,114.22,114.22,228.0,ATR
2023-03-27 10:35:00,114.175,114.249,114.175,114.249,597.0,ATR
2023-03-27 10:33:00,114.309,114.309,114.309,114.309,152.0,ATR
2023-03-27 10:32:00,114.245,114.245,114.245,114.245,464.0,ATR
2023-03-27 10:30:00,114.34,114.35,114.34,114.35,1016.0,ATR
2023-03-27 10:29:00,114.29,114.34,114.29,114.34,456.0,ATR
2023-03-27 10:28:00,114.33,114.33,114.33,114.33,259.0,ATR
2023-03-27 10:27:00,114.305,114.305,114.305,114.305,114.0,ATR
2023-03-27 10:26:00,114.439,114.439,114.439,114.439,430.0,ATR
2023-03-27 10:25:00,114.43,114.43,114.43,114.43,121.0,ATR
2023-03-27 10:24:00,114.41,114.41,114.41,114.41,288.0,ATR
2023-03-27 10:23:00,114.519,114.519,114.519,114.519,115.0,ATR
2023-03-27 10:22:00,114.39,114.39,114.39,114.39,289.0,ATR
2023-03-27 10:19:00,114.21,114.31,114.19,114.31,721.0,ATR
2023-03-27 10:18:00,114.285,114.36,114.265,114.31,1485.0,ATR
2023-03-27 10:17:00,114.479,114.48,114.36,114.36,835.0,ATR
2023-03-27 10:16:00,114.32,114.32,114.32,114.32,560.0,ATR
2023-03-27 10:15:00,114.24,114.24,114.24,114.24,123.0,ATR
2023-03-27 10:13:00,114.26,114.26,114.26,114.26,251.0,ATR
2023-03-27 10:09:00,113.81,113.92,113.81,113.92,520.0,ATR
2023-03-27 10:06:00,113.98,114.11,113.86,114.11,1458.0,ATR
2023-03-27 10:03:00,113.94,113.94,113.94,113.94,118.0,ATR
2023-03-27 10:02:00,113.925,113.985,113.92,113.985,965.0,ATR
2023-03-27 10:01:00,113.86,113.955,113.84,113.885,2982.0,ATR
2023-03-27 10:00:00,113.86,113.86,113.86,113.86,220.0,ATR
2023-03-27 09:59:00,113.7,113.8,113.7,113.8,301.0,ATR
2023-03-27 09:58:00,113.7325,113.81,113.7325,113.8,917.0,ATR
2023-03-27 09:56:00,113.92,113.92,113.86,113.86,737.0,ATR
2023-03-27 09:55:00,113.64,113.64,113.64,113.64,202.0,ATR
2023-03-27 09:54:00,113.51,113.65,113.51,113.65,229.0,ATR
2023-03-27 09:53:00,113.635,113.635,113.635,113.635,323.0,ATR
2023-03-27 09:49:00,113.7,113.7,113.68,113.68,523.0,ATR
2023-03-27 09:48:00,113.86,113.89,113.86,113.89,717.0,ATR
2023-03-27 09:39:00,113.49,113.49,113.49,113.49,220.0,ATR
2023-03-27 09:37:00,114.2203,114.2203,114.2203,114.2203,473.0,ATR
2023-03-27 09:32:00,114.245,114.245,114.245,114.245,120.0,ATR
2023-03-27 09:31:00,113.46,113.46,113.46,113.46,1642.0,ATR
